timestamp_ms,raw_value,leads_off,bpm
1771381723158,348,0,
1771381723158,350,0,
1771381723158,350,0,
1771381723158,351,0,
1771381723158,352,0,
1771381723158,354,0,
1771381723158,353,0,
1771381723158,3,0,
1771381723158,293,0,
1771381723158,298,0,
1771381723158,303,0,
1771381723158,309,0,
1771381723158,315,0,
1771381723158,319,0,
1771381723159,327,0,
1771381723159,334,0,
1771381723159,337,0,
1771381723159,340,0,
1771381723159,344,0,
1771381723159,345,0,
1771381723159,345,0,
1771381723159,348,0,
1771381723159,346,0,
1771381723159,347,0,
1771381723159,349,0,
1771381723159,348,0,
1771381723159,348,0,
1771381723159,350,0,
1771381723159,350,0,
1771381723159,351,0,
1771381723159,352,0,
1771381723159,354,0,
1771381723159,353,0,
1771381723159,293,0,
1771381723159,298,0,
1771381723159,303,0,
1771381723159,309,0,
1771381723159,315,0,
1771381723159,319,0,
1771381723159,327,0,
1771381723159,334,0,
1771381723159,337,0,
1771381723159,340,0,
1771381723159,344,0,
1771381723159,345,0,
1771381723159,345,0,
1771381723159,348,0,
1771381723159,346,0,
1771381723159,347,0,
1771381723159,349,0,
1771381723159,348,0,
1771381723159,348,0,
1771381723159,350,0,
1771381723159,350,0,
1771381723159,351,0,
1771381723159,352,0,
1771381723159,354,0,
1771381723159,353,0,
1771381724726,351,0,
1771381724730,351,0,
1771381724738,352,0,
1771381724743,351,0,
1771381724747,353,0,
1771381724751,353,0,
1771381724759,353,0,
1771381724763,353,0,
1771381724767,353,0,
1771381724775,353,0,
1771381724779,351,0,
1771381724783,352,0,
1771381724788,351,0,
1771381724796,351,0,
1771381724800,352,0,
1771381724804,350,0,
1771381724808,349,0,
1771381724816,350,0,
1771381724820,347,0,
1771381724824,347,0,
1771381724829,347,0,
1771381724837,346,0,
1771381724841,346,0,
1771381724845,344,0,
1771381724853,341,0,
1771381724857,333,0,
1771381724861,322,0,
1771381724865,319,0,
1771381724874,322,0,
1771381724878,326,0,
1771381724882,330,0,
1771381724886,331,0,
1771381724894,332,0,
1771381724898,336,0,
1771381724902,338,0,
1771381724910,343,0,
1771381724915,345,0,
1771381724919,346,0,
1771381724923,345,0,
1771381724931,345,0,
1771381724935,348,0,
1771381724939,346,0,
1771381724943,346,0,
1771381724951,348,0,
1771381724956,349,0,
1771381724960,348,0,
1771381724964,348,0,
1771381724972,347,0,
1771381724976,347,0,
1771381724980,350,0,
1771381724988,356,0,
1771381724992,362,0,
1771381724996,352,0,
1771381725001,312,0,
1771381725009,244,0,
1771381725013,130,0,
1771381725017,0,0,
1771381725017,0,0,
1771381725021,0,0,
1771381725025,0,0,
1771381725029,3,0,
1771381725033,75,0,
1771381725037,215,0,
1771381725042,345,0,
1771381725050,374,0,
1771381725054,360,0,
1771381725058,357,0,
1771381725062,366,0,
1771381725070,376,0,
1771381725074,378,0,
1771381725078,380,0,
1771381725083,381,0,
1771381725091,380,0,
1771381725095,379,0,
1771381725099,380,0,
1771381725107,377,0,
1771381725111,376,0,
1771381725115,375,0,
1771381725119,372,0,
1771381725128,370,0,
1771381725132,369,0,
1771381725136,368,0,
1771381725140,364,0,
1771381725148,362,0,
1771381725152,360,0,
1771381725156,356,0,
1771381725160,352,0,
1771381725169,349,0,
1771381725173,344,0,
1771381725177,339,0,
1771381725185,335,0,
1771381725189,330,0,
1771381725193,325,0,
1771381725197,321,0,
1771381725205,316,0,
1771381725209,310,0,
1771381725214,307,0,
1771381725218,304,0,
1771381725226,298,0,
1771381725230,296,0,
1771381725234,296,0,
1771381725242,292,0,
1771381725246,292,0,
1771381725250,294,0,
1771381725254,293,0,
1771381725263,295,0,
1771381725267,297,0,
1771381725271,298,0,
1771381725275,300,0,
1771381725283,306,0,
1771381725287,310,0,
1771381725291,315,0,
1771381725295,322,0,
1771381725304,329,0,
1771381725308,331,0,
1771381725312,336,0,
1771381725320,342,0,
1771381725324,345,0,
1771381725328,348,0,
1771381725332,349,0,
1771381725341,350,0,
1771381725345,352,0,
1771381725349,353,0,
1771381725353,351,0,
1771381725361,352,0,
1771381725365,355,0,
1771381725369,355,0,
1771381725377,353,0,
1771381725382,354,0,
1771381725386,356,0,
1771381725390,354,0,
1771381725398,354,0,
1771381725402,356,0,
1771381725406,355,0,
1771381725410,355,0,
1771381725418,356,0,
1771381725422,355,0,
1771381725427,354,0,
1771381725431,355,0,
1771381725439,354,0,
1771381725443,353,0,
1771381725447,354,0,
1771381725455,353,0,
1771381725459,352,0,
1771381725463,354,0,
1771381725467,355,0,
1771381725476,353,0,
1771381725480,353,0,
1771381725484,355,0,
1771381725488,354,0,
1771381725496,354,0,
1771381725500,354,0,
1771381725504,351,0,
1771381725513,351,0,
1771381725517,353,0,
1771381725521,351,0,
1771381725525,351,0,
1771381725533,350,0,
1771381725537,349,0,
1771381725541,350,0,
1771381725545,350,0,
1771381725553,352,0,
1771381725558,349,0,
1771381725562,350,0,
1771381725570,350,0,
1771381725574,346,0,
1771381725578,346,0,
1771381725582,345,0,
1771381725590,344,0,
1771381725594,344,0,
1771381725599,342,0,
1771381725603,336,0,
1771381725611,325,0,
1771381725615,317,0,
1771381725619,318,0,
1771381725623,321,0,
1771381725631,327,0,
1771381725635,331,0,
1771381725639,331,0,
1771381725648,333,0,
1771381725652,338,0,
1771381725656,340,0,
1771381725660,343,0,
1771381725668,346,0,
1771381725672,344,0,
1771381725676,344,0,
1771381725681,345,0,
1771381725689,345,0,
1771381725693,344,0,
1771381725697,345,0,
1771381725705,347,0,
1771381725709,344,0,
1771381725713,343,0,
1771381725717,346,0,
1771381725726,345,0,
1771381725730,345,0,
1771381725734,351,0,
1771381725738,360,0,
1771381725746,362,0,
1771381725750,339,0,
1771381725754,285,0,
1771381725758,199,0,
1771381725762,72,0,
1771381725766,0,0,
1771381725771,0,0,
1771381725775,0,0,
1771381725779,0,0,
1771381725783,56,0,
1771381725787,187,0,
1771381725791,328,0,
1771381725795,375,0,
1771381725803,367,0,
1771381725807,357,0,
1771381725812,364,0,
1771381725816,372,0,
1771381725824,376,0,
1771381725828,379,0,
1771381725832,380,0,
1771381725840,378,0,
1771381725844,377,0,
1771381725848,376,0,
1771381725853,375,0,
1771381725861,373,0,
1771381725865,373,0,
1771381725869,373,0,
1771381725873,368,0,
1771381725881,365,0,
1771381725885,364,0,
1771381725889,361,0,
1771381725893,359,0,
1771381725902,358,0,
1771381725906,353,0,
1771381725910,350,0,
1771381725918,346,0,
1771381725922,341,0,
1771381725926,337,0,
1771381725930,332,0,
1771381725939,328,0,
1771381725943,322,0,
1771381725947,318,0,
1771381725951,314,0,
1771381725959,307,0,
1771381725963,303,0,
1771381725967,301,0,
1771381725975,296,0,
1771381725980,293,0,
1771381725984,292,0,
1771381725988,289,0,
1771381725996,289,0,
1771381726000,289,0,
1771381726004,288,0,
1771381726008,286,0,
1771381726016,289,0,
1771381726020,290,0,
1771381726025,293,0,
1771381726033,297,0,
1771381726037,304,0,
1771381726041,308,0,
1771381726045,313,0,
1771381726053,321,0,
1771381726057,325,0,
1771381726061,331,0,
1771381726065,337,0,
1771381726074,341,0,
1771381726078,344,0,
1771381726082,346,0,
1771381726086,347,0,
1771381726094,348,0,
1771381726098,350,0,
1771381726102,352,0,
1771381726111,351,0,
1771381726115,351,0,
1771381726119,353,0,
1771381726123,352,0,
1771381726131,352,0,
1771381726135,354,0,
1771381726139,352,0,
1771381726143,352,0,
1771381726151,353,0,
1771381726156,352,0,
1771381726160,352,0,
1771381726168,354,0,
1771381726172,353,0,
1771381726176,352,0,
1771381726180,353,0,
1771381726188,356,0,
1771381726192,353,0,
1771381726197,354,0,
1771381726201,355,0,
1771381726209,353,0,
1771381726213,354,0,
1771381726217,355,0,
1771381726221,353,0,
1771381726229,354,0,
1771381726233,354,0,
1771381726237,353,0,
1771381726246,352,0,
1771381726250,353,0,
1771381726254,352,0,
1771381726258,351,0,
1771381726266,353,0,
1771381726270,354,0,
1771381726274,351,0,
1771381726278,350,0,
1771381726287,351,0,
1771381726291,349,0,
1771381726295,349,0,
1771381726303,350,0,
1771381726307,349,0,
1771381726311,349,0,
1771381726315,349,0,
1771381726324,348,0,
1771381726328,345,0,
1771381726332,346,0,
1771381726336,344,0,
1771381726344,343,0,
1771381726348,345,0,
1771381726352,343,0,
1771381726356,336,0,
1771381726364,330,0,
1771381726369,322,0,
1771381726373,316,0,
1771381726381,319,0,
1771381726385,325,0,
1771381726389,328,0,
1771381726393,329,0,
1771381726401,333,0,
1771381726405,335,0,
1771381726410,339,0,
1771381726414,343,0,
1771381726422,344,0,
1771381726426,342,0,
1771381726430,343,0,
1771381726438,344,0,
1771381726443,343,0,
1771381726447,343,0,
1771381726451,345,0,
1771381726459,343,0,
1771381726463,343,0,
1771381726467,344,0,
1771381726471,343,0,
1771381726479,344,0,
1771381726484,346,0,
1771381726488,346,0,
1771381726492,355,0,
1771381726500,363,0,
1771381726504,355,0,
1771381726508,319,0,
1771381726517,255,0,
1771381726521,158,0,
1771381726525,34,0,
1771381726529,0,0,
1771381726529,0,0,
1771381726532,5,0,
1771381726536,58,0,
1771381726541,176,0,
1771381726549,321,0,
1771381726553,381,0,
1771381726557,372,0,
1771381726565,358,0,
1771381726569,357,0,
1771381726573,364,0,
1771381726577,370,0,
1771381726586,374,0,
1771381726590,375,0,
1771381726594,374,0,
1771381726598,377,0,
1771381726606,374,0,
1771381726610,372,0,
1771381726614,372,0,
1771381726618,370,0,
1771381726626,368,0,
1771381726631,368,0,
1771381726635,365,0,
1771381726643,363,0,
1771381726647,362,0,
1771381726651,360,0,
1771381726655,356,0,
1771381726663,354,0,
1771381726668,350,0,
1771381726672,346,0,
1771381726676,342,0,
1771381726684,341,0,
1771381726688,336,0,
1771381726692,330,0,
1771381726700,326,0,
1771381726704,322,0,
1771381726709,315,0,
1771381726713,312,0,
1771381726721,307,0,
1771381726725,303,0,
1771381726729,299,0,
1771381726733,297,0,
1771381726741,294,0,
1771381726745,294,0,
1771381726749,293,0,
1771381726754,290,0,
1771381726762,288,0,
1771381726766,290,0,
1771381726770,287,0,
1771381726779,287,0,
1771381726782,293,0,
1771381726787,297,0,
1771381726790,300,0,
1771381726799,308,0,
1771381726803,313,0,
1771381726807,318,0,
1771381726811,326,0,
1771381726819,332,0,
1771381726823,338,0,
1771381726827,344,0,
1771381726835,351,0,
1771381726840,350,0,
1771381726844,350,0,
1771381726848,355,0,
1771381726856,355,0,
1771381726860,355,0,
1771381726864,357,0,
1771381726868,356,0,
1771381726876,356,0,
1771381726880,357,0,
1771381726885,357,0,
1771381726889,358,0,
1771381726897,359,0,
1771381726901,358,0,
1771381726905,356,0,
1771381726913,357,0,
1771381726917,359,0,
1771381726921,357,0,
1771381726925,356,0,
1771381726934,359,0,
1771381726938,359,0,
1771381726942,357,0,
1771381726946,359,0,
1771381726954,359,0,
1771381726958,357,0,
1771381726962,358,0,
1771381726971,359,0,
1771381726975,356,0,
1771381726979,358,0,
1771381726983,359,0,
1771381726991,358,0,
1771381726995,359,0,
1771381726999,360,0,
1771381727003,358,0,
1771381727012,356,0,
1771381727016,359,0,
1771381727020,357,0,
1771381727028,357,0,
1771381727032,358,0,
1771381727036,356,0,
1771381727040,355,0,
1771381727048,356,0,
1771381727052,355,0,
1771381727057,355,0,
1771381727061,354,0,
1771381727069,354,0,
1771381727073,354,0,
1771381727077,353,0,
1771381727081,355,0,
1771381727089,352,0,
1771381727094,349,0,
1771381727098,351,0,
1771381727106,351,0,
1771381727110,350,0,
1771381727114,349,0,
1771381727119,344,0,
1771381727127,338,0,
1771381727131,330,0,
1771381727134,322,0,
1771381727138,323,0,
1771381727147,329,0,
1771381727151,333,0,
1771381727155,335,0,
1771381727163,337,0,
1771381727167,341,0,
1771381727171,343,0,
1771381727175,345,0,
1771381727184,349,0,
1771381727188,349,0,
1771381727192,348,0,
1771381727196,350,0,
1771381727204,349,0,
1771381727208,347,0,
1771381727212,347,0,
1771381727216,348,0,
1771381727225,347,0,
1771381727229,349,0,
1771381727233,351,0,
1771381727241,349,0,
1771381727245,347,0,
1771381727250,349,0,
1771381727253,355,0,
1771381727261,362,0,
1771381727266,360,0,
1771381727270,327,0,
1771381727274,270,0,
1771381727282,180,0,
1771381727286,53,0,
1771381727286,0,0,
1771381727290,0,0,
1771381727294,0,0,
1771381727298,23,0,
1771381727302,126,0,
1771381727311,282,0,
1771381727315,369,0,
1771381727319,372,0,
1771381727323,358,0,
1771381727331,362,0,
1771381727335,371,0,
1771381727339,377,0,
1771381727343,382,0,
1771381727351,382,0,
1771381727356,382,0,
1771381727360,382,0,
1771381727368,383,0,
1771381727372,381,0,
1771381727376,379,0,
1771381727380,378,0,
1771381727389,377,0,
1771381727393,373,0,
1771381727397,374,0,
1771381727401,371,0,
1771381727409,366,0,
1771381727413,365,0,
1771381727417,363,0,
1771381727425,359,0,
1771381727429,358,0,
1771381727433,354,0,
1771381727437,349,0,
1771381727446,344,0,
1771381727450,342,0,
1771381727454,337,0,
1771381727458,331,0,
1771381727466,328,0,
1771381727470,323,0,
1771381727474,316,0,
1771381727478,315,0,
1771381727487,310,0,
1771381727491,304,0,
1771381727495,304,0,
1771381727503,301,0,
1771381727507,298,0,
1771381727511,298,0,
1771381727515,297,0,
1771381727524,296,0,
1771381727528,296,0,
1771381727532,297,0,
1771381727536,296,0,
1771381727544,299,0,
1771381727548,302,0,
1771381727552,307,0,
1771381727560,310,0,
1771381727564,317,0,
1771381727569,322,0,
1771381727573,325,0,
1771381727581,333,0,
1771381727585,337,0,
1771381727589,340,0,
1771381727593,345,0,
1771381727601,348,0,
1771381727605,350,0,
1771381727610,351,0,
1771381727614,353,0,
1771381727622,353,0,
1771381727627,354,0,
1771381727630,353,0,
1771381727638,354,0,
1771381727642,353,0,
1771381727646,356,0,
1771381727651,356,0,
1771381727659,354,0,
1771381727663,355,0,
1771381727667,356,0,
1771381727671,354,0,
1771381727679,356,0,
1771381727683,356,0,
1771381727687,353,0,
1771381727696,355,0,
1771381727700,356,0,
1771381727704,355,0,
1771381727708,354,0,
1771381727716,354,0,
1771381727720,356,0,
1771381727724,354,0,
1771381727728,356,0,
1771381727736,355,0,
1771381727741,353,0,
1771381727745,356,0,
1771381727749,355,0,
1771381727757,354,0,
1771381727761,355,0,
1771381727765,355,0,
1771381727773,354,0,
1771381727777,353,0,
1771381727782,354,0,
1771381727786,353,0,
1771381727794,351,0,
1771381727798,354,0,
1771381727802,351,0,
1771381727806,349,0,
1771381727814,352,0,
1771381727818,351,0,
1771381727822,349,0,
1771381727831,350,0,
1771381727835,352,0,
1771381727839,351,0,
1771381727843,351,0,
1771381727851,350,0,
1771381727855,347,0,
1771381727859,347,0,
1771381727863,345,0,
1771381727872,344,0,
1771381727876,343,0,
1771381727880,346,0,
1771381727884,343,0,
1771381727892,337,0,
1771381727896,331,0,
1771381727900,319,0,
1771381727908,314,0,
1771381727913,319,0,
1771381727917,325,0,
1771381727921,326,0,
1771381727929,328,0,
1771381727933,331,0,
1771381727937,334,0,
1771381727941,339,0,
1771381727949,343,0,
1771381727954,344,0,
1771381727958,344,0,
1771381727966,346,0,
1771381727970,344,0,
1771381727974,341,0,
1771381727978,344,0,
1771381727986,344,0,
1771381727990,344,0,
1771381727995,346,0,
1771381727999,345,0,
1771381728007,345,0,
1771381728011,345,0,
1771381728015,347,0,
1771381728023,346,0,
1771381728027,356,0,
1771381728031,362,0,
1771381728035,351,0,
1771381728044,310,0,
1771381728048,243,0,
1771381728052,130,0,
1771381728056,0,0,
1771381728060,0,0,
1771381728060,0,0,
1771381728064,0,0,
1771381728068,16,0,
1771381728072,129,0,
1771381728081,291,0,
1771381728085,367,0,
1771381728089,367,0,
1771381728097,358,0,
1771381728101,363,0,
1771381728105,370,0,
1771381728109,377,0,
1771381728118,379,0,
1771381728122,381,0,
1771381728126,379,0,
1771381728130,379,0,
1771381728138,380,0,
1771381728142,377,0,
1771381728146,377,0,
1771381728150,376,0,
1771381728158,372,0,
1771381728162,371,0,
1771381728167,369,0,
1771381728175,367,0,
1771381728179,364,0,
1771381728183,363,0,
1771381728187,359,0,
1771381728195,357,0,
1771381728199,355,0,
1771381728203,352,0,
1771381728208,345,0,
1771381728216,342,0,
1771381728220,340,0,
1771381728224,334,0,
1771381728232,330,0,
1771381728236,326,0,
1771381728240,320,0,
1771381728245,315,0,
1771381728253,311,0,
1771381728257,306,0,
1771381728261,303,0,
1771381728265,300,0,
1771381728273,296,0,
1771381728277,295,0,
1771381728281,296,0,
1771381728289,295,0,
1771381728293,294,0,
1771381728298,294,0,
1771381728302,296,0,
1771381728310,296,0,
1771381728314,298,0,
1771381728318,302,0,
1771381728322,306,0,
1771381728330,311,0,
1771381728334,317,0,
1771381728339,321,0,
1771381728343,327,0,
1771381728351,333,0,
1771381728355,336,0,
1771381728359,341,0,
1771381728367,344,0,
1771381728371,349,0,
1771381728376,349,0,
1771381728379,350,0,
1771381728388,353,0,
1771381728392,353,0,
1771381728396,353,0,
1771381728400,353,0,
1771381728408,353,0,
1771381728413,354,0,
1771381728416,356,0,
1771381728425,355,0,
1771381728429,356,0,
1771381728433,356,0,
1771381728437,355,0,
1771381728445,354,0,
1771381728449,355,0,
1771381728453,356,0,
1771381728457,354,0,
1771381728465,356,0,
1771381728470,357,0,
1771381728474,356,0,
1771381728478,355,0,
1771381728486,355,0,
1771381728490,355,0,
1771381728494,356,0,
1771381728502,356,0,
1771381728506,354,0,
1771381728511,355,0,
1771381728515,355,0,
1771381728523,355,0,
1771381728527,355,0,
1771381728531,356,0,
1771381728535,355,0,
1771381728543,354,0,
1771381728547,354,0,
1771381728551,354,0,
1771381728560,353,0,
1771381728564,354,0,
1771381728568,354,0,
1771381728572,352,0,
1771381728580,352,0,
1771381728584,352,0,
1771381728588,351,0,
1771381728592,351,0,
1771381728601,352,0,
1771381728605,352,0,
1771381728609,349,0,
1771381728613,350,0,
1771381728621,351,0,
1771381728625,349,0,
1771381728629,349,0,
1771381728638,348,0,
1771381728642,348,0,
1771381728646,346,0,
1771381728650,344,0,
1771381728658,344,0,
1771381728662,344,0,
1771381728666,344,0,
1771381728670,341,0,
1771381728679,337,0,
1771381728683,330,0,
1771381728687,319,0,
1771381728695,314,0,
1771381728699,319,0,
1771381728703,325,0,
1771381728707,327,0,
1771381728715,329,0,
1771381728719,332,0,
1771381728724,335,0,
1771381728728,339,0,
1771381728736,342,0,
1771381728740,343,0,
1771381728744,344,0,
1771381728752,345,0,
1771381728756,343,0,
1771381728760,343,0,
1771381728765,344,0,
1771381728773,344,0,
1771381728777,343,0,
1771381728781,342,0,
1771381728785,344,0,
1771381728793,345,0,
1771381728797,346,0,
1771381728801,346,0,
1771381728805,347,0,
1771381728814,356,0,
1771381728818,362,0,
1771381728822,349,0,
1771381728830,307,0,
1771381728834,239,0,
1771381728838,123,0,
1771381728842,0,0,
1771381728846,0,0,
1771381728846,0,0,
1771381728850,0,0,
1771381728855,38,0,
1771381728859,161,0,
1771381728867,309,0,
1771381728871,370,0,
1771381728875,365,0,
1771381728879,356,0,
1771381728887,359,0,
1771381728891,368,0,
1771381728896,374,0,
1771381728904,376,0,
1771381728908,377,0,
1771381728912,376,0,
1771381728916,377,0,
1771381728924,375,0,
1771381728928,375,0,
1771381728932,373,0,
1771381728937,369,0,
1771381728945,368,0,
1771381728949,366,0,
1771381728953,364,0,
1771381728961,361,0,
1771381728965,359,0,
1771381728970,356,0,
1771381728973,353,0,
1771381728982,352,0,
1771381728986,348,0,
1771381728990,344,0,
1771381728994,340,0,
1771381729002,336,0,
1771381729006,331,0,
1771381729010,329,0,
1771381729018,324,0,
1771381729023,316,0,
1771381729027,313,0,
1771381729031,307,0,
1771381729039,302,0,
1771381729043,299,0,
1771381729047,298,0,
1771381729051,294,0,
1771381729059,291,0,
1771381729063,290,0,
1771381729068,288,0,
1771381729072,285,0,
1771381729080,285,0,
1771381729084,286,0,
1771381729088,285,0,
1771381729096,288,0,
1771381729100,290,0,
1771381729104,292,0,
1771381729109,297,0,
1771381729117,304,0,
1771381729121,307,0,
1771381729125,313,0,
1771381729129,320,0,
1771381729137,326,0,
1771381729141,330,0,
1771381729145,336,0,
1771381729154,340,0,
1771381729158,341,0,
1771381729162,343,0,
1771381729166,346,0,
1771381729174,346,0,
1771381729178,347,0,
1771381729182,349,0,
1771381729186,347,0,
1771381729194,347,0,
1771381729199,347,0,
1771381729203,348,0,
1771381729207,348,0,
1771381729215,350,0,
1771381729219,351,0,
1771381729223,350,0,
1771381729231,350,0,
1771381729235,350,0,
1771381729240,350,0,
1771381729244,348,0,
1771381729252,349,0,
1771381729256,348,0,
1771381729260,350,0,
1771381729264,351,0,
1771381729272,348,0,
1771381729276,349,0,
1771381729281,350,0,
1771381729289,349,0,
1771381729293,350,0,
1771381729297,351,0,
1771381729301,350,0,
1771381729309,349,0,
1771381729313,348,0,
1771381729318,349,0,
1771381729322,348,0,
1771381729330,351,0,
1771381729334,350,0,
1771381729338,346,0,
1771381729342,349,0,
1771381729350,347,0,
1771381729354,344,0,
1771381729358,345,0,
1771381729367,346,0,
1771381729371,345,0,
1771381729375,345,0,
1771381729379,347,0,
1771381729387,345,0,
1771381729391,343,0,
1771381729395,344,0,
1771381729399,345,0,
1771381729408,342,0,
1771381729412,340,0,
1771381729416,339,0,
1771381729424,338,0,
1771381729428,340,0,
1771381729432,342,0,
1771381729436,338,0,
1771381729444,333,0,
1771381729448,328,0,
1771381729453,318,0,
1771381729457,314,0,
1771381729465,319,0,
1771381729469,324,0,
1771381729473,326,0,
1771381729477,328,0,
1771381729485,330,0,
1771381729489,331,0,
1771381729494,337,0,
1771381729502,339,0,
1771381729506,339,0,
1771381729510,342,0,
1771381729514,341,0,
1771381729522,338,0,
1771381729526,339,0,
1771381729530,340,0,
1771381729535,339,0,
1771381729543,339,0,
1771381729547,340,0,
1771381729551,341,0,
1771381729559,340,0,
1771381729563,340,0,
1771381729567,340,0,
1771381729571,342,0,
1771381729580,354,0,
1771381729584,357,0,
1771381729588,342,0,
1771381729592,299,0,
1771381729600,229,0,
1771381729604,123,0,
1771381729608,8,0,
1771381729608,0,0,
1771381729613,0,0,
1771381729617,9,0,
1771381729621,66,0,
1771381729625,183,0,
1771381729633,321,0,
1771381729637,376,0,
1771381729641,370,0,
1771381729645,356,0,
1771381729653,357,0,
1771381729657,362,0,
1771381729661,368,0,
1771381729666,374,0,
1771381729674,372,0,
1771381729678,371,0,
1771381729682,373,0,
1771381729690,372,0,
1771381729694,370,0,
1771381729698,370,0,
1771381729702,368,0,
1771381729711,367,0,
1771381729715,366,0,
1771381729719,364,0,
1771381729723,361,0,
1771381729731,359,0,
1771381729735,359,0,
1771381729739,353,0,
1771381729747,350,0,
1771381729752,349,0,
1771381729756,344,0,
1771381729760,340,0,
1771381729768,337,0,
1771381729772,333,0,
1771381729776,328,0,
1771381729780,324,0,
1771381729788,319,0,
1771381729793,314,0,
1771381729797,311,0,
1771381729801,308,0,
1771381729810,304,0,
1771381729814,301,0,
1771381729817,299,0,
1771381729825,294,0,
1771381729829,293,0,
1771381729833,294,0,
1771381729838,290,0,
1771381729846,290,0,
1771381729850,290,0,
1771381729854,289,0,
1771381729858,290,0,
1771381729866,295,0,
1771381729870,298,0,
1771381729874,302,0,
1771381729883,310,0,
1771381729887,316,0,
1771381729891,321,0,
1771381729895,328,0,
1771381729903,336,0,
1771381729907,340,0,
1771381729911,344,0,
1771381729915,351,0,
1771381729924,353,0,
1771381729928,354,0,
1771381729932,355,0,
1771381729936,356,0,
1771381729944,357,0,
1771381729948,358,0,
1771381729952,358,0,
1771381729960,358,0,
1771381729965,360,0,
1771381729969,358,0,
1771381729973,358,0,
1771381729981,357,0,
1771381729986,359,0,
1771381729989,357,0,
1771381729993,357,0,
1771381730001,357,0,
1771381730005,355,0,
1771381730010,355,0,
1771381730018,356,0,
1771381730022,356,0,
1771381730026,356,0,
1771381730030,357,0,
1771381730038,357,0,
1771381730042,357,0,
1771381730046,359,0,
1771381730051,360,0,
1771381730059,358,0,
1771381730063,357,0,
1771381730067,358,0,
1771381730072,356,0,
1771381730079,355,0,
1771381730083,357,0,
1771381730087,356,0,
1771381730096,356,0,
1771381730100,358,0,
1771381730104,357,0,
1771381730108,357,0,
1771381730117,357,0,
1771381730121,357,0,
1771381730124,356,0,
1771381730128,356,0,
1771381730137,356,0,
1771381730141,354,0,
1771381730145,354,0,
1771381730153,354,0,
1771381730158,352,0,
1771381730161,353,0,
1771381730165,353,0,
1771381730173,352,0,
1771381730177,348,0,
1771381730182,343,0,
1771381730186,335,0,
1771381730194,326,0,
1771381730198,328,0,
1771381730202,331,0,
1771381730206,334,0,
1771381730214,337,0,
1771381730218,340,0,
1771381730223,339,0,
1771381730231,342,0,
1771381730235,349,0,
1771381730240,350,0,
1771381730243,350,0,
1771381730251,352,0,
1771381730255,350,0,
1771381730260,350,0,
1771381730264,350,0,
1771381730272,349,0,
1771381730276,348,0,
1771381730280,350,0,
1771381730288,351,0,
1771381730292,351,0,
1771381730297,351,0,
1771381730300,352,0,
1771381730309,350,0,
1771381730313,354,0,
1771381730317,363,0,
1771381730321,360,0,
1771381730329,336,0,
1771381730333,285,0,
1771381730337,202,0,
1771381730341,80,0,
1771381730345,0,0,
1771381730349,0,0,
1771381730354,0,0,
1771381730358,13,0,
1771381730362,104,0,
1771381730366,261,0,
1771381730370,361,0,
1771381730378,375,0,
1771381730382,364,0,
1771381730386,362,0,
1771381730390,369,0,
1771381730399,378,0,
1771381730403,381,0,
1771381730407,381,0,
1771381730415,383,0,
1771381730420,382,0,
1771381730423,381,0,
1771381730427,381,0,
1771381730435,380,0,
1771381730440,377,0,
1771381730444,376,0,
1771381730448,374,0,
1771381730456,372,0,
1771381730460,370,0,
1771381730464,370,0,
1771381730468,367,0,
1771381730476,364,0,
1771381730481,363,0,
1771381730485,359,0,
1771381730493,355,0,
1771381730497,352,0,
1771381730501,347,0,
1771381730505,344,0,
1771381730513,340,0,
1771381730517,336,0,
1771381730521,329,0,
1771381730526,325,0,
1771381730534,320,0,
1771381730538,314,0,
1771381730542,310,0,
1771381730550,308,0,
1771381730554,304,0,
1771381730559,300,0,
1771381730563,301,0,
1771381730571,299,0,
1771381730575,298,0,
1771381730579,299,0,
1771381730583,298,0,
1771381730591,298,0,
1771381730595,298,0,
1771381730599,301,0,
1771381730603,303,0,
1771381730612,307,0,
1771381730616,313,0,
1771381730620,317,0,
1771381730628,321,0,
1771381730632,329,0,
1771381730636,332,0,
1771381730640,335,0,
1771381730648,342,0,
1771381730653,345,0,
1771381730657,346,0,
1771381730661,349,0,
1771381730669,350,0,
1771381730673,350,0,
1771381730677,353,0,
1771381730685,354,0,
1771381730689,352,0,
1771381730694,353,0,
1771381730698,357,0,
1771381730706,354,0,
1771381730710,353,0,
1771381730714,355,0,
1771381730718,354,0,
1771381730726,354,0,
1771381730731,357,0,
1771381730735,356,0,
1771381730743,354,0,
1771381730747,356,0,
1771381730751,354,0,
1771381730755,353,0,
1771381730763,354,0,
1771381730767,355,0,
1771381730771,353,0,
1771381730775,354,0,
1771381730784,355,0,
1771381730788,352,0,
1771381730792,351,0,
1771381730796,354,0,
1771381730804,353,0,
1771381730808,352,0,
1771381730812,354,0,
1771381730820,353,0,
1771381730825,353,0,
1771381730829,353,0,
1771381730833,353,0,
1771381730841,351,0,
1771381730845,353,0,
1771381730849,353,0,
1771381730853,351,0,
1771381730861,352,0,
1771381730866,354,0,
1771381730870,350,0,
1771381730878,348,0,
1771381730882,351,0,
1771381730886,348,0,
1771381730890,347,0,
1771381730898,347,0,
1771381730902,347,0,
1771381730907,345,0,
1771381730911,346,0,
1771381730919,343,0,
1771381730923,335,0,
1771381730927,328,0,
1771381730931,320,0,
1771381730939,319,0,
1771381730943,324,0,
1771381730947,330,0,
1771381730956,331,0,
1771381730960,331,0,
1771381730964,337,0,
1771381730968,339,0,
1771381730976,342,0,
1771381730980,345,0,
1771381730984,346,0,
1771381730988,345,0,
1771381730997,346,0,
1771381731001,346,0,
1771381731005,344,0,
1771381731013,347,0,
1771381731017,346,0,
1771381731021,347,0,
1771381731025,346,0,
1771381731033,350,0,
1771381731038,347,0,
1771381731042,346,0,
1771381731046,348,0,
1771381731054,355,0,
1771381731058,361,0,
1771381731062,358,0,
1771381731066,329,0,
1771381731074,270,0,
1771381731079,177,0,
1771381731083,44,0,
1771381731087,0,0,
1771381731091,0,0,
1771381731091,0,0,
1771381731095,3,0,
1771381731099,69,0,
1771381731103,203,0,
1771381731111,337,0,
1771381731115,376,0,
1771381731119,364,0,
1771381731124,359,0,
1771381731132,369,0,
1771381731136,377,0,
1771381731140,380,0,
1771381731148,384,0,
1771381731152,382,0,
1771381731156,381,0,
1771381731160,381,0,
1771381731169,383,0,
1771381731173,381,0,
1771381731177,380,0,
1771381731181,381,0,
1771381731189,377,0,
1771381731193,372,0,
1771381731197,372,0,
1771381731205,368,0,
1771381731210,366,0,
1771381731214,366,0,
1771381731218,362,0,
1771381731226,359,0,
1771381731230,356,0,
1771381731234,352,0,
1771381731238,348,0,
1771381731246,345,0,
1771381731251,340,0,
1771381731255,335,0,
1771381731259,331,0,
1771381731267,328,0,
1771381731271,320,0,
1771381731275,315,0,
1771381731283,313,0,
1771381731288,308,0,
1771381731291,304,0,
1771381731296,303,0,
1771381731304,302,0,
1771381731308,298,0,
1771381731312,299,0,
1771381731316,299,0,
1771381731325,298,0,
1771381731328,298,0,
1771381731332,298,0,
1771381731341,299,0,
1771381731345,303,0,
1771381731349,309,0,
1771381731353,310,0,
1771381731361,316,0,
1771381731365,322,0,
1771381731369,327,0,
1771381731373,332,0,
1771381731382,338,0,
1771381731386,342,0,
1771381731390,345,0,
1771381731394,348,0,
1771381731402,350,0,
1771381731406,351,0,
1771381731410,353,0,
1771381731418,353,0,
1771381731423,354,0,
1771381731427,355,0,
1771381731431,359,0,
1771381731439,356,0,
1771381731443,355,0,
1771381731447,358,0,
1771381731451,356,0,
1771381731459,356,0,
1771381731463,358,0,
1771381731468,357,0,
1771381731476,356,0,
1771381731480,357,0,
1771381731484,356,0,
1771381731488,354,0,
1771381731496,355,0,
1771381731500,355,0,
1771381731504,355,0,
1771381731509,354,0,
1771381731517,357,0,
1771381731521,355,0,
1771381731525,354,0,
1771381731529,356,0,
1771381731537,354,0,
1771381731541,353,0,
1771381731545,355,0,
1771381731554,355,0,
1771381731558,353,0,
1771381731562,355,0,
1771381731566,355,0,
1771381731574,354,0,
1771381731578,354,0,
1771381731582,356,0,
1771381731586,353,0,
1771381731595,353,0,
1771381731599,354,0,
1771381731603,352,0,
1771381731611,351,0,
1771381731615,352,0,
1771381731619,351,0,
1771381731623,351,0,
1771381731632,351,0,
1771381731636,349,0,
1771381731640,346,0,
1771381731644,347,0,
1771381731652,347,0,
1771381731656,345,0,
1771381731660,343,0,
1771381731664,341,0,
1771381731672,331,0,
1771381731676,320,0,
1771381731681,320,0,
1771381731689,322,0,
1771381731693,325,0,
1771381731697,332,0,
1771381731701,333,0,
1771381731709,334,0,
1771381731713,338,0,
1771381731717,343,0,
1771381731721,344,0,
1771381731730,347,0,
1771381731734,348,0,
1771381731738,347,0,
1771381731746,347,0,
1771381731750,349,0,
1771381731754,347,0,
1771381731758,345,0,
1771381731767,349,0,
1771381731771,347,0,
1771381731775,347,0,
1771381731779,349,0,
1771381731787,348,0,
1771381731791,346,0,
1771381731795,352,0,
1771381731803,361,0,
1771381731808,361,0,
1771381731812,343,0,
1771381731816,294,0,
1771381731824,215,0,
1771381731828,92,0,
1771381731828,0,0,
1771381731832,0,0,
1771381731836,0,0,
1771381731840,0,0,
1771381731844,30,0,
1771381731848,152,0,
1771381731853,308,0,
1771381731857,373,0,
1771381731865,368,0,
1771381731869,358,0,
1771381731873,363,0,
1771381731881,373,0,
1771381731885,377,0,
1771381731889,380,0,
1771381731894,380,0,
1771381731902,380,0,
1771381731906,379,0,
1771381731910,377,0,
1771381731914,380,0,
1771381731922,377,0,
1771381731926,372,0,
1771381731930,373,0,
1771381731939,370,0,
1771381731943,367,0,
1771381731947,365,0,
1771381731951,361,0,
1771381731959,358,0,
1771381731963,355,0,
1771381731967,351,0,
1771381731971,348,0,
1771381731980,351,0,
1771381731984,347,0,
1771381731988,343,0,
1771381731992,338,0,
1771381732000,334,0,
1771381732004,329,0,
1771381732008,324,0,
1771381732016,321,0,
1771381732021,316,0,
1771381732025,310,0,
1771381732029,306,0,
1771381732037,304,0,
1771381732041,300,0,
1771381732045,299,0,
1771381732049,297,0,
1771381732057,293,0,
1771381732061,292,0,
1771381732066,292,0,
1771381732074,286,0,
1771381732078,284,0,
1771381732082,294,0,
1771381732086,301,0,
1771381732094,306,0,
1771381732098,312,0,
1771381732102,316,0,
1771381732107,320,0,
1771381732115,325,0,
1771381732119,328,0,
1771381732124,333,0,
1771381732127,339,0,
1771381732135,344,0,
1771381732139,347,0,
1771381732143,349,0,
1771381732152,351,0,
1771381732156,349,0,
1771381732160,351,0,
1771381732164,355,0,
1771381732172,354,0,
1771381732176,357,0,
1771381732181,357,0,
1771381732184,356,0,
1771381732193,355,0,
1771381732197,356,0,
1771381732201,354,0,
1771381732209,352,0,
1771381732213,353,0,
1771381732217,356,0,
1771381732221,356,0,
1771381732229,359,0,
1771381732233,360,0,
1771381732238,357,0,
1771381732242,355,0,
1771381732250,356,0,
1771381732254,354,0,
1771381732258,354,0,
1771381732262,357,0,
1771381732270,357,0,
1771381732274,355,0,
1771381732279,355,0,
1771381732287,354,0,
1771381732291,354,0,
1771381732295,355,0,
1771381732299,357,0,
1771381732307,354,0,
1771381732311,354,0,
1771381732315,356,0,
1771381732320,352,0,
1771381732328,352,0,
1771381732332,356,0,
1771381732336,351,0,
1771381732344,350,0,
1771381732348,351,0,
1771381732352,350,0,
1771381732356,349,0,
1771381732365,349,0,
1771381732369,349,0,
1771381732373,349,0,
1771381732377,349,0,
1771381732385,346,0,
1771381732389,343,0,
1771381732393,344,0,
1771381732401,347,0,
1771381732406,343,0,
1771381732410,340,0,
1771381732414,338,0,
1771381732422,332,0,
1771381732426,321,0,
1771381732430,316,0,
1771381732434,318,0,
1771381732442,323,0,
1771381732446,328,0,
1771381732451,329,0,
1771381732455,330,0,
1771381732463,334,0,
1771381732467,336,0,
1771381732471,340,0,
1771381732479,341,0,
1771381732483,343,0,
1771381732487,342,0,
1771381732492,341,0,
1771381732500,343,0,
1771381732504,341,0,
1771381732508,340,0,
1771381732512,344,0,
1771381732520,343,0,
1771381732524,342,0,
1771381732528,343,0,
1771381732537,341,0,
1771381732541,339,0,
1771381732545,342,0,
1771381732549,355,0,
1771381732557,362,0,
1771381732561,357,0,
1771381732565,325,0,
1771381732569,265,0,
1771381732577,169,0,
1771381732582,50,0,
1771381732582,0,0,
1771381732586,0,0,
1771381732590,12,0,
1771381732594,95,0,
1771381732602,213,0,
1771381732606,338,0,
1771381732610,378,0,
1771381732614,365,0,
1771381732623,351,0,
1771381732627,353,0,
1771381732631,363,0,
1771381732635,368,0,
1771381732643,368,0,
1771381732647,369,0,
1771381732651,369,0,
1771381732655,367,0,
1771381732664,367,0,
1771381732668,367,0,
1771381732672,365,0,
1771381732680,363,0,
1771381732684,360,0,
1771381732688,357,0,
1771381732692,357,0,
1771381732700,357,0,
1771381732704,354,0,
1771381732709,351,0,
1771381732713,350,0,
1771381732721,347,0,
1771381732725,343,0,
1771381732729,339,0,
1771381732737,336,0,
1771381732741,330,0,
1771381732745,327,0,
1771381732750,323,0,
1771381732758,316,0,
1771381732762,312,0,
1771381732766,308,0,
1771381732770,303,0,
1771381732778,299,0,
1771381732782,295,0,
1771381732786,289,0,
1771381732791,287,0,
1771381732799,286,0,
1771381732803,284,0,
1771381732807,280,0,
1771381732815,278,0,
1771381732819,278,0,
1771381732823,276,0,
1771381732827,278,0,
1771381732836,280,0,
1771381732840,282,0,
1771381732844,288,0,
1771381732848,294,0,
1771381732856,299,0,
1771381732860,305,0,
1771381732864,312,0,
1771381732872,317,0,
1771381732876,325,0,
1771381732881,331,0,
1771381732885,336,0,
1771381732893,340,0,
1771381732897,342,0,
1771381732901,344,0,
1771381732905,346,0,
1771381732914,349,0,
1771381732918,349,0,
1771381732922,347,0,
1771381732930,350,0,
1771381732934,352,0,
1771381732938,350,0,
1771381732942,352,0,
1771381732950,352,0,
1771381732954,352,0,
1771381732959,350,0,
1771381732963,349,0,
1771381732971,351,0,
1771381732975,350,0,
1771381732979,351,0,
1771381732983,352,0,
1771381732991,351,0,
1771381732995,353,0,
1771381732999,352,0,
1771381733008,351,0,
1771381733012,352,0,
1771381733016,353,0,
1771381733020,352,0,
1771381733028,351,0,
1771381733032,351,0,
1771381733036,352,0,
1771381733040,350,0,
1771381733049,350,0,
1771381733053,351,0,
1771381733057,350,0,
1771381733065,350,0,
1771381733069,350,0,
1771381733073,349,0,
1771381733077,350,0,
1771381733086,350,0,
1771381733090,348,0,
1771381733094,348,0,
1771381733098,350,0,
1771381733106,347,0,
1771381733110,348,0,
1771381733114,349,0,
1771381733119,349,0,
1771381733126,345,0,
1771381733130,344,0,
1771381733135,345,0,
1771381733143,344,0,
1771381733147,344,0,
1771381733151,344,0,
1771381733155,339,0,
1771381733163,335,0,
1771381733167,326,0,
1771381733171,319,0,
1771381733175,322,0,
1771381733184,326,0,
1771381733188,327,0,
1771381733192,329,0,
1771381733200,333,0,
1771381733204,337,0,
1771381733208,338,0,
1771381733212,341,0,
1771381733221,343,0,
1771381733225,342,0,
1771381733229,344,0,
1771381733233,345,0,
1771381733241,344,0,
1771381733245,344,0,
1771381733249,345,0,
1771381733253,344,0,
1771381733261,345,0,
1771381733266,346,0,
1771381733270,344,0,
1771381733278,345,0,
1771381733282,344,0,
1771381733286,347,0,
1771381733290,355,0,
1771381733298,362,0,
1771381733302,355,0,
1771381733307,318,0,
1771381733311,258,0,
1771381733319,164,0,
1771381733323,43,0,
1771381733323,0,0,
1771381733327,0,0,
1771381733331,11,0,
1771381733335,89,0,
1771381733343,207,0,
1771381733347,335,0,
1771381733352,379,0,
1771381733356,369,0,
1771381733364,358,0,
1771381733368,359,0,
1771381733372,368,0,
1771381733376,373,0,
1771381733384,375,0,
1771381733388,376,0,
1771381733393,375,0,
1771381733401,374,0,
1771381733405,374,0,
1771381733409,374,0,
1771381733413,374,0,
1771381733421,372,0,
1771381733425,369,0,
1771381733429,369,0,
1771381733434,367,0,
1771381733442,367,0,
1771381733446,364,0,
1771381733450,361,0,
1771381733454,359,0,
1771381733462,355,0,
1771381733466,353,0,
1771381733470,350,0,
1771381733479,345,0,
1771381733483,342,0,
1771381733487,338,0,
1771381733491,332,0,
1771381733499,328,0,
1771381733503,324,0,
1771381733507,319,0,
1771381733511,316,0,
1771381733520,312,0,
1771381733524,309,0,
1771381733528,305,0,
1771381733536,302,0,
1771381733540,299,0,
1771381733544,297,0,
1771381733548,296,0,
1771381733556,295,0,
1771381733560,294,0,
1771381733565,295,0,
1771381733569,293,0,
1771381733577,294,0,
1771381733581,298,0,
1771381733585,303,0,
1771381733593,306,0,
1771381733598,312,0,
1771381733601,319,0,
1771381733606,324,0,
1771381733614,331,0,
1771381733618,336,0,
1771381733622,343,0,
1771381733626,348,0,
1771381733634,352,0,
1771381733638,353,0,
1771381733642,355,0,
1771381733646,357,0,
1771381733655,357,0,
1771381733659,359,0,
1771381733663,361,0,
1771381733671,360,0,
1771381733676,359,0,
1771381733679,360,0,
1771381733683,358,0,
1771381733692,360,0,
1771381733696,360,0,
1771381733700,359,0,
1771381733704,358,0,
1771381733712,358,0,
1771381733716,360,0,
1771381733720,360,0,
1771381733729,360,0,
1771381733733,360,0,
1771381733737,359,0,
1771381733741,360,0,
1771381733749,360,0,
1771381733753,360,0,
1771381733757,359,0,
1771381733761,360,0,
1771381733769,358,0,
1771381733773,357,0,
1771381733778,357,0,
1771381733782,357,0,
1771381733790,357,0,
1771381733794,359,0,
1771381733798,359,0,
1771381733806,358,0,
1771381733810,359,0,
1771381733814,358,0,
1771381733819,358,0,
1771381733827,358,0,
1771381733831,358,0,
1771381733835,356,0,
1771381733839,357,0,
1771381733847,356,0,
1771381733851,353,0,
1771381733855,352,0,
1771381733864,353,0,
1771381733868,352,0,
1771381733872,351,0,
1771381733876,349,0,
1771381733885,346,0,
1771381733889,338,0,
1771381733892,327,0,
1771381733896,325,0,
1771381733905,328,0,
1771381733909,332,0,
1771381733913,337,0,
1771381733917,338,0,
1771381733925,340,0,
1771381733929,343,0,
1771381733933,346,0,
1771381733941,350,0,
1771381733945,352,0,
1771381733950,353,0,
1771381733954,351,0,
1771381733962,350,0,
1771381733966,352,0,
1771381733970,352,0,
1771381733974,351,0,
1771381733982,352,0,
1771381733986,352,0,
1771381733990,352,0,
1771381733999,353,0,
1771381734003,353,0,
1771381734007,353,0,
1771381734011,354,0,
1771381734019,362,0,
1771381734023,366,0,
1771381734027,352,0,
1771381734031,312,0,
1771381734040,245,0,
1771381734044,137,0,
1771381734048,10,0,
1771381734052,0,0,
1771381734052,0,0,
1771381734056,0,0,
1771381734060,56,0,
1771381734069,180,0,
1771381734073,322,0,
1771381734077,374,0,
1771381734081,368,0,
1771381734089,363,0,
1771381734093,368,0,
1771381734097,376,0,
1771381734101,382,0,
1771381734109,384,0,
1771381734113,385,0,
1771381734117,384,0,
1771381734126,382,0,
1771381734130,383,0,
1771381734134,382,0,
1771381734138,379,0,
1771381734146,380,0,
1771381734150,379,0,
1771381734154,375,0,
1771381734158,374,0,
1771381734167,373,0,
1771381734171,372,0,
1771381734175,367,0,
1771381734179,365,0,
1771381734187,362,0,
1771381734191,357,0,
1771381734195,355,0,
1771381734204,351,0,
1771381734208,347,0,
1771381734212,344,0,
1771381734216,340,0,
1771381734225,333,0,
1771381734228,329,0,
1771381734232,325,0,
1771381734236,320,0,
1771381734245,317,0,
1771381734249,314,0,
1771381734253,310,0,
1771381734261,307,0,
1771381734265,305,0,
1771381734269,303,0,
1771381734273,301,0,
1771381734281,301,0,
1771381734285,301,0,
1771381734289,300,0,
1771381734294,300,0,
1771381734302,303,0,
1771381734306,303,0,
1771381734310,308,0,
1771381734314,313,0,
1771381734322,315,0,
1771381734326,321,0,
1771381734331,326,0,
1771381734339,331,0,
1771381734343,336,0,
1771381734347,342,0,
1771381734351,345,0,
1771381734359,346,0,
1771381734364,348,0,
1771381734367,350,0,
1771381734371,352,0,
1771381734380,354,0,
1771381734384,354,0,
1771381734388,354,0,
1771381734396,355,0,
1771381734400,356,0,
1771381734404,356,0,
1771381734408,356,0,
1771381734416,355,0,
1771381734421,356,0,
1771381734425,354,0,
1771381734429,355,0,
1771381734437,356,0,
1771381734441,355,0,
1771381734445,356,0,
1771381734449,356,0,
1771381734457,355,0,
1771381734462,356,0,
1771381734466,355,0,
1771381734474,353,0,
1771381734478,354,0,
1771381734482,355,0,
1771381734486,356,0,
1771381734494,355,0,
1771381734498,354,0,
1771381734502,356,0,
1771381734507,354,0,
1771381734515,355,0,
1771381734519,354,0,
1771381734523,352,0,
1771381734531,352,0,
1771381734535,352,0,
1771381734539,353,0,
1771381734543,353,0,
1771381734552,352,0,
1771381734556,350,0,
1771381734560,352,0,
1771381734564,351,0,
1771381734572,352,0,
1771381734576,350,0,
1771381734580,347,0,
1771381734588,348,0,
1771381734593,347,0,
1771381734597,349,0,
1771381734601,345,0,
1771381734609,338,0,
1771381734613,332,0,
1771381734617,321,0,
1771381734622,318,0,
1771381734630,322,0,
1771381734634,329,0,
1771381734638,330,0,
1771381734642,333,0,
1771381734650,335,0,
1771381734654,339,0,
1771381734658,343,0,
1771381734666,345,0,
1771381734670,347,0,
1771381734675,347,0,
1771381734679,349,0,
1771381734687,348,0,
1771381734691,347,0,
1771381734695,348,0,
1771381734699,348,0,
1771381734707,347,0,
1771381734711,348,0,
1771381734715,349,0,
1771381734724,348,0,
1771381734728,348,0,
1771381734732,347,0,
1771381734736,352,0,
1771381734744,361,0,
1771381734748,362,0,
1771381734752,344,0,
1771381734756,296,0,
1771381734765,222,0,
1771381734769,102,0,
1771381734773,0,0,
1771381734773,0,0,
1771381734777,0,0,
1771381734781,0,0,
1771381734785,44,0,
1771381734789,171,0,
1771381734797,322,0,
1771381734801,374,0,
1771381734806,365,0,
1771381734810,360,0,
1771381734818,366,0,
1771381734822,373,0,
1771381734826,381,0,
1771381734830,381,0,
1771381734838,379,0,
1771381734842,380,0,
1771381734846,381,0,
1771381734855,380,0,
1771381734859,378,0,
1771381734863,378,0,
1771381734867,375,0,
1771381734875,373,0,
1771381734879,371,0,
1771381734883,370,0,
1771381734887,367,0,
1771381734896,366,0,
1771381734900,363,0,
1771381734904,359,0,
1771381734908,357,0,
1771381734916,355,0,
1771381734920,349,0,
1771381734924,345,0,
1771381734933,341,0,
1771381734937,337,0,
1771381734941,332,0,
1771381734945,329,0,
1771381734953,324,0,
1771381734957,319,0,
1771381734961,315,0,
1771381734965,311,0,
1771381734974,306,0,
1771381734978,304,0,
1771381734982,301,0,
1771381734990,296,0,
1771381734994,296,0,
1771381734998,296,0,
1771381735002,294,0,
1771381735010,294,0,
1771381735014,293,0,
1771381735019,292,0,
1771381735023,293,0,
1771381735031,296,0,
1771381735035,301,0,
1771381735039,304,0,
1771381735043,309,0,
1771381735051,315,0,
1771381735055,320,0,
1771381735059,328,0,
1771381735068,333,0,
1771381735072,336,0,
1771381735076,341,0,
1771381735080,345,0,
1771381735088,346,0,
1771381735092,348,0,
1771381735096,350,0,
1771381735100,350,0,
1771381735109,351,0,
1771381735113,352,0,
1771381735117,353,0,
1771381735125,353,0,
1771381735129,353,0,
1771381735133,355,0,
1771381735137,352,0,
1771381735145,355,0,
1771381735150,354,0,
1771381735154,353,0,
1771381735158,354,0,
1771381735166,354,0,
1771381735170,353,0,
1771381735174,355,0,
1771381735178,355,0,
1771381735187,354,0,
1771381735191,352,0,
1771381735195,353,0,
1771381735203,352,0,
1771381735207,351,0,
1771381735211,353,0,
1771381735215,353,0,
1771381735223,352,0,
1771381735227,354,0,
1771381735231,353,0,
1771381735236,351,0,
1771381735244,352,0,
1771381735248,351,0,
1771381735252,351,0,
1771381735260,351,0,
1771381735264,352,0,
1771381735268,351,0,
1771381735272,350,0,
1771381735281,352,0,
1771381735285,352,0,
1771381735289,350,0,
1771381735293,352,0,
1771381735301,350,0,
1771381735305,347,0,
1771381735310,346,0,
1771381735318,345,0,
1771381735322,344,0,
1771381735326,345,0,
1771381735330,345,0,
1771381735338,338,0,
1771381735342,332,0,
1771381735346,322,0,
1771381735350,317,0,
1771381735358,319,0,
1771381735363,325,0,
1771381735367,330,0,
1771381735371,331,0,
1771381735379,335,0,
1771381735383,337,0,
1771381735387,340,0,
1771381735395,345,0,
1771381735399,346,0,
1771381735404,345,0,
1771381735408,345,0,
1771381735416,346,0,
1771381735420,347,0,
1771381735424,346,0,
1771381735428,346,0,
1771381735436,346,0,
1771381735440,345,0,
1771381735444,347,0,
1771381735453,348,0,
1771381735457,346,0,
1771381735461,347,0,
1771381735465,349,0,
1771381735473,356,0,
1771381735477,362,0,
1771381735481,350,0,
1771381735485,307,0,
1771381735494,240,0,
1771381735498,129,0,
1771381735502,1,0,
1771381735502,0,0,
1771381735506,0,0,
1771381735510,0,0,
1771381735514,33,0,
1771381735518,153,0,
1771381735526,306,0,
1771381735530,373,0,
1771381735535,367,0,
1771381735539,356,0,
1771381735547,360,0,
1771381735551,371,0,
1771381735555,375,0,
1771381735559,379,0,
1771381735567,380,0,
1771381735571,378,0,
1771381735576,379,0,
1771381735584,380,0,
1771381735588,377,0,
1771381735592,375,0,
1771381735596,375,0,
1771381735604,373,0,
1771381735608,371,0,
1771381735612,368,0,
1771381735616,368,0,
1771381735625,362,0,
1771381735629,361,0,
1771381735633,360,0,
1771381735637,355,0,
1771381735645,353,0,
1771381735649,350,0,
1771381735653,345,0,
1771381735662,342,0,
1771381735666,338,0,
1771381735670,332,0,
1771381735674,328,0,
1771381735682,324,0,
1771381735686,317,0,
1771381735690,313,0,
1771381735694,311,0,
1771381735702,309,0,
1771381735707,302,0,
1771381735711,299,0,
1771381735719,297,0,
1771381735723,294,0,
1771381735727,293,0,
1771381735731,292,0,
1771381735739,289,0,
1771381735743,288,0,
1771381735748,288,0,
1771381735752,289,0,
1771381735760,291,0,
1771381735764,296,0,
1771381735768,300,0,
1771381735772,305,0,
1771381735780,313,0,
1771381735784,319,0,
1771381735789,322,0,
1771381735797,327,0,
1771381735801,336,0,
1771381735805,338,0,
1771381735809,343,0,
1771381735818,348,0,
1771381735822,348,0,
1771381735825,349,0,
1771381735829,351,0,
1771381735838,351,0,
1771381735842,352,0,
1771381735846,354,0,
1771381735854,354,0,
1771381735858,354,0,
1771381735862,355,0,
1771381735866,356,0,
1771381735874,353,0,
1771381735879,353,0,
1771381735883,355,0,
1771381735887,354,0,
1771381735895,354,0,
1771381735899,355,0,
1771381735903,354,0,
1771381735907,354,0,
1771381735915,355,0,
1771381735920,353,0,
1771381735924,353,0,
1771381735932,354,0,
1771381735936,353,0,
1771381735940,352,0,
1771381735944,353,0,
1771381735952,354,0,
1771381735956,352,0,
1771381735961,351,0,
1771381735965,352,0,
1771381735973,351,0,
1771381735977,352,0,
1771381735981,353,0,
1771381735989,350,0,
1771381735993,351,0,
1771381735998,351,0,
1771381736001,349,0,
1771381736010,350,0,
1771381736014,351,0,
1771381736018,351,0,
1771381736022,349,0,
1771381736030,348,0,
1771381736034,349,0,
1771381736038,346,0,
1771381736047,345,0,
1771381736051,345,0,
1771381736055,344,0,
1771381736059,344,0,
1771381736067,344,0,
1771381736071,340,0,
1771381736075,335,0,
1771381736079,327,0,
1771381736087,317,0,
1771381736092,314,0,
1771381736096,321,0,
1771381736100,326,0,
1771381736108,327,0,
1771381736112,330,0,
1771381736116,333,0,
1771381736124,335,0,
1771381736128,341,0,
1771381736133,343,0,
1771381736137,343,0,
1771381736145,344,0,
1771381736149,343,0,
1771381736153,342,0,
1771381736157,344,0,
1771381736165,345,0,
1771381736169,344,0,
1771381736173,344,0,
1771381736182,344,0,
1771381736186,344,0,
1771381736190,342,0,
1771381736194,343,0,
1771381736202,344,0,
1771381736206,347,0,
1771381736210,359,0,
1771381736214,364,0,
1771381736223,343,0,
1771381736227,296,0,
1771381736231,223,0,
1771381736235,110,0,
1771381736239,1,0,
1771381736243,0,0,
1771381736247,0,0,
1771381736251,38,0,
1771381736255,138,0,
1771381736259,287,0,
1771381736268,373,0,
1771381736272,377,0,
1771381736276,357,0,
1771381736280,353,0,
1771381736288,360,0,
1771381736292,366,0,
1771381736296,370,0,
1771381736300,372,0,
1771381736309,371,0,
1771381736313,371,0,
1771381736317,370,0,
1771381736325,368,0,
1771381736329,369,0,
1771381736333,367,0,
1771381736337,363,0,
1771381736346,363,0,
1771381736350,361,0,
1771381736354,360,0,
1771381736358,356,0,
1771381736366,355,0,
1771381736370,352,0,
1771381736374,349,0,
1771381736382,348,0,
1771381736386,344,0,
1771381736391,339,0,
1771381736395,336,0,
1771381736403,333,0,
1771381736407,327,0,
1771381736411,321,0,
1771381736415,316,0,
1771381736423,310,0,
1771381736427,307,0,
1771381736432,303,0,
1771381736436,300,0,
1771381736444,294,0,
1771381736448,292,0,
1771381736452,289,0,
1771381736460,286,0,
1771381736464,284,0,
1771381736468,282,0,
1771381736472,279,0,
1771381736481,279,0,
1771381736485,278,0,
1771381736489,279,0,
1771381736493,282,0,
1771381736501,286,0,
1771381736505,291,0,
1771381736509,298,0,
1771381736518,303,0,
1771381736522,310,0,
1771381736526,317,0,
1771381736530,325,0,
1771381736538,331,0,
1771381736542,336,0,
1771381736546,340,0,
1771381736550,344,0,
1771381736558,344,0,
1771381736563,346,0,
1771381736567,347,0,
1771381736571,348,0,
1771381736579,350,0,
1771381736583,351,0,
1771381736587,351,0,
1771381736595,351,0,
1771381736600,352,0,
1771381736604,352,0,
1771381736608,352,0,
1771381736616,352,0,
1771381736620,351,0,
1771381736624,351,0,
1771381736628,352,0,
1771381736636,352,0,
1771381736640,352,0,
1771381736644,353,0,
1771381736653,352,0,
1771381736657,351,0,
1771381736661,352,0,
1771381736665,352,0,
1771381736673,352,0,
1771381736677,352,0,
1771381736681,352,0,
1771381736685,353,0,
1771381736694,354,0,
1771381736698,353,0,
1771381736702,352,0,
1771381736706,351,0,
1771381736714,352,0,
1771381736718,352,0,
1771381736722,351,0,
1771381736730,352,0,
1771381736735,351,0,
1771381736739,351,0,
1771381736743,352,0,
1771381736751,353,0,
1771381736755,351,0,
1771381736759,350,0,
1771381736763,349,0,
1771381736771,350,0,
1771381736775,349,0,
1771381736780,348,0,
1771381736788,347,0,
1771381736792,346,0,
1771381736796,347,0,
1771381736800,347,0,
1771381736808,342,0,
1771381736812,337,0,
1771381736816,330,0,
1771381736821,320,0,
1771381736829,322,0,
1771381736833,327,0,
1771381736837,332,0,
1771381736845,333,0,
1771381736849,334,0,
1771381736853,338,0,
1771381736857,341,0,
1771381736866,346,0,
1771381736870,347,0,
1771381736874,346,0,
1771381736878,346,0,
1771381736886,346,0,
1771381736890,346,0,
1771381736894,347,0,
1771381736898,346,0,
1771381736907,346,0,
1771381736911,347,0,
1771381736915,346,0,
1771381736923,347,0,
1771381736927,348,0,
1771381736931,347,0,
1771381736935,347,0,
1771381736943,354,0,
1771381736947,362,0,
1771381736952,358,0,
1771381736956,326,0,
1771381736964,270,0,
1771381736968,183,0,
1771381736972,64,0,
1771381736976,0,0,
1771381736980,0,0,
1771381736980,8,0,
1771381736984,59,0,
1771381736993,165,0,
1771381736997,305,0,
1771381737001,377,0,
1771381737005,374,0,
1771381737013,361,0,
1771381737017,362,0,
1771381737021,368,0,
1771381737025,375,0,
1771381737034,378,0,
1771381737038,377,0,
1771381737042,378,0,
1771381737050,379,0,
1771381737054,377,0,
1771381737058,375,0,
1771381737062,376,0,
1771381737070,373,0,
1771381737075,373,0,
1771381737079,370,0,
1771381737083,371,0,
1771381737091,367,0,
1771381737095,365,0,
1771381737099,364,0,
1771381737103,360,0,
1771381737111,358,0,
1771381737116,356,0,
1771381737120,351,0,
1771381737128,349,0,
1771381737132,347,0,
1771381737136,341,0,
1771381737140,336,0,
1771381737148,333,0,
1771381737152,329,0,
1771381737156,323,0,
1771381737161,318,0,
1771381737169,315,0,
1771381737173,309,0,
1771381737177,306,0,
1771381737185,305,0,
1771381737189,301,0,
1771381737194,300,0,
1771381737197,299,0,
1771381737206,296,0,
1771381737210,295,0,
1771381737214,295,0,
1771381737218,294,0,
1771381737226,294,0,
1771381737230,299,0,
1771381737234,303,0,
1771381737242,306,0,
1771381737247,312,0,
1771381737251,318,0,
1771381737255,322,0,
1771381737263,330,0,
1771381737267,337,0,
1771381737271,341,0,
1771381737275,347,0,
1771381737283,352,0,
1771381737288,353,0,
1771381737292,356,0,
1771381737296,357,0,
1771381737304,357,0,
1771381737308,357,0,
1771381737312,360,0,
1771381737320,361,0,
1771381737324,359,0,
1771381737329,359,0,
1771381737333,360,0,
1771381737341,359,0,
1771381737345,359,0,
1771381737349,360,0,
1771381737353,358,0,
1771381737361,359,0,
1771381737365,360,0,
1771381737370,359,0,
1771381737378,358,0,
1771381737382,358,0,
1771381737386,358,0,
1771381737390,358,0,
1771381737398,358,0,
1771381737402,360,0,
1771381737406,358,0,
1771381737410,358,0,
1771381737419,358,0,
1771381737423,357,0,
1771381737427,358,0,
1771381737431,358,0,
1771381737439,357,0,
1771381737443,357,0,
1771381737447,358,0,
1771381737455,357,0,
1771381737460,357,0,
1771381737464,359,0,
1771381737468,356,0,
1771381737476,355,0,
1771381737480,356,0,
1771381737484,357,0,
1771381737488,354,0,
1771381737496,355,0,
1771381737500,354,0,
1771381737505,352,0,
1771381737514,352,0,
1771381737517,352,0,
1771381737521,350,0,
1771381737525,349,0,
1771381737533,344,0,
1771381737537,336,0,
1771381737541,327,0,
1771381737545,325,0,
1771381737554,327,0,
1771381737558,333,0,
1771381737562,336,0,
1771381737566,338,0,
1771381737574,339,0,
1771381737578,342,0,
1771381737582,347,0,
1771381737591,348,0,
1771381737595,351,0,
1771381737599,352,0,
1771381737603,350,0,
1771381737611,351,0,
1771381737615,351,0,
1771381737619,350,0,
1771381737623,351,0,
1771381737632,351,0,
1771381737636,348,0,
1771381737640,349,0,
1771381737648,350,0,
1771381737652,351,0,
1771381737656,349,0,
1771381737660,354,0,
1771381737668,364,0,
1771381737672,362,0,
1771381737677,343,0,
1771381737681,296,0,
1771381737689,220,0,
1771381737693,104,0,
1771381737697,0,0,
1771381737697,0,0,
1771381737701,0,0,
1771381737705,14,0,
1771381737713,109,0,
1771381737718,263,0,
1771381737722,361,0,
1771381737726,371,0,
1771381737734,360,0,
1771381737738,363,0,
1771381737742,370,0,
1771381737746,376,0,
1771381737754,379,0,
1771381737758,381,0,
1771381737763,383,0,
1771381737767,381,0,
1771381737775,380,0,
1771381737779,381,0,
1771381737783,379,0,
1771381737791,379,0,
1771381737795,377,0,
1771381737799,375,0,
1771381737804,375,0,
1771381737812,372,0,
1771381737816,367,0,
1771381737820,365,0,
1771381737824,363,0,
1771381737833,361,0,
1771381737836,357,0,
1771381737840,354,0,
1771381737849,351,0,
1771381737853,347,0,
1771381737857,342,0,
1771381737861,339,0,
1771381737869,334,0,
1771381737873,329,0,
1771381737877,326,0,
1771381737881,321,0,
1771381737890,316,0,
1771381737894,312,0,
1771381737898,308,0,
1771381737906,306,0,
1771381737910,303,0,
1771381737914,301,0,
1771381737918,300,0,
1771381737927,300,0,
1771381737931,300,0,
1771381737935,298,0,
1771381737939,298,0,
1771381737947,298,0,
1771381737951,299,0,
1771381737955,300,0,
1771381737960,307,0,
1771381737967,312,0,
1771381737972,316,0,
1771381737976,321,0,
1771381737984,325,0,
1771381737988,331,0,
1771381737992,335,0,
1771381737996,340,0,
1771381738004,343,0,
1771381738008,345,0,
1771381738012,347,0,
1771381738017,348,0,
1771381738025,349,0,
1771381738029,350,0,
1771381738033,351,0,
1771381738041,349,0,
1771381738045,352,0,
1771381738049,353,0,
1771381738053,354,0,
1771381738062,353,0,
1771381738066,352,0,
1771381738070,352,0,
1771381738074,353,0,
1771381738082,353,0,
1771381738086,353,0,
1771381738090,353,0,
1771381738094,354,0,
1771381738103,353,0,
1771381738107,352,0,
1771381738111,353,0,
1771381738119,353,0,
1771381738123,352,0,
1771381738127,352,0,
1771381738131,352,0,
1771381738139,353,0,
1771381738144,352,0,
1771381738148,352,0,
1771381738152,352,0,
1771381738160,351,0,
1771381738164,351,0,
1771381738168,350,0,
1771381738176,348,0,
1771381738180,351,0,
1771381738184,351,0,
1771381738189,350,0,
1771381738197,350,0,
1771381738201,350,0,
1771381738205,350,0,
1771381738209,350,0,
1771381738217,349,0,
1771381738221,350,0,
1771381738225,348,0,
1771381738229,348,0,
1771381738238,347,0,
1771381738242,345,0,
1771381738246,346,0,
1771381738254,344,0,
1771381738258,344,0,
1771381738262,344,0,
1771381738266,339,0,
1771381738275,332,0,
1771381738279,323,0,
1771381738283,317,0,
1771381738287,320,0,
1771381738295,323,0,
1771381738299,328,0,
1771381738303,331,0,
1771381738311,332,0,
1771381738315,335,0,
1771381738320,339,0,
1771381738324,342,0,
1771381738332,344,0,
1771381738336,345,0,
1771381738340,345,0,
1771381738344,345,0,
1771381738352,345,0,
1771381738357,343,0,
1771381738361,345,0,
1771381738369,346,0,
1771381738373,347,0,
1771381738377,347,0,
1771381738381,346,0,
1771381738389,346,0,
1771381738393,346,0,
1771381738397,348,0,
1771381738402,356,0,
1771381738410,361,0,
1771381738414,350,0,
1771381738418,310,0,
1771381738422,246,0,
1771381738430,142,0,
1771381738434,11,0,
1771381738438,0,0,
1771381738438,0,0,
1771381738443,0,0,
1771381738447,31,0,
1771381738451,153,0,
1771381738459,306,0,
1771381738464,369,0,
1771381738467,366,0,
1771381738472,357,0,
1771381738479,363,0,
1771381738484,372,0,
1771381738488,377,0,
1771381738492,380,0,
1771381738500,382,0,
1771381738505,381,0,
1771381738508,382,0,
1771381738516,380,0,
1771381738520,378,0,
1771381738524,378,0,
1771381738528,378,0,
1771381738537,377,0,
1771381738541,373,0,
1771381738545,371,0,
1771381738549,370,0,
1771381738557,366,0,
1771381738561,364,0,
1771381738565,362,0,
1771381738574,359,0,
1771381738578,357,0,
1771381738582,354,0,
1771381738586,349,0,
1771381738594,345,0,
1771381738598,340,0,
1771381738602,336,0,
1771381738606,331,0,
1771381738615,328,0,
1771381738619,324,0,
1771381738623,319,0,
1771381738627,313,0,
1771381738635,310,0,
1771381738639,307,0,
1771381738643,305,0,
1771381738652,304,0,
1771381738656,300,0,
1771381738660,298,0,
1771381738664,299,0,
1771381738672,296,0,
1771381738676,296,0,
1771381738680,296,0,
1771381738684,294,0,
1771381738693,297,0,
1771381738697,302,0,
1771381738701,308,0,
1771381738709,311,0,
1771381738713,316,0,
1771381738717,322,0,
1771381738721,326,0,
1771381738729,332,0,
1771381738733,337,0,
1771381738737,340,0,
1771381738741,344,0,
1771381738750,346,0,
1771381738754,347,0,
1771381738758,349,0,
1771381738766,351,0,
1771381738770,353,0,
1771381738774,351,0,
1771381738778,351,0,
1771381738787,354,0,
1771381738791,353,0,
1771381738795,354,0,
1771381738799,354,0,
1771381738807,354,0,
1771381738811,355,0,
1771381738815,355,0,
1771381738819,354,0,
1771381738828,356,0,
1771381738832,356,0,
1771381738836,353,0,
1771381738844,354,0,
1771381738848,355,0,
1771381738852,355,0,
1771381738856,353,0,
1771381738864,353,0,
1771381738868,354,0,
1771381738872,352,0,
1771381738877,352,0,
1771381738885,353,0,
1771381738889,353,0,
1771381738893,354,0,
1771381738901,353,0,
1771381738905,353,0,
1771381738909,352,0,
1771381738913,352,0,
1771381738922,350,0,
1771381738926,351,0,
1771381738930,352,0,
1771381738934,352,0,
1771381738942,350,0,
1771381738946,349,0,
1771381738950,351,0,
1771381738954,348,0,
1771381738963,349,0,
1771381738967,349,0,
1771381738971,347,0,
1771381738979,349,0,
1771381738983,348,0,
1771381738987,346,0,
1771381738991,346,0,
1771381738999,344,0,
1771381739004,343,0,
1771381739008,344,0,
1771381739012,345,0,
1771381739020,343,0,
1771381739024,336,0,
1771381739028,329,0,
1771381739036,319,0,
1771381739040,315,0,
1771381739045,319,0,
1771381739049,324,0,
1771381739057,327,0,
1771381739061,329,0,
1771381739065,331,0,
1771381739069,332,0,
1771381739077,338,0,
1771381739081,342,0,
1771381739086,342,0,
1771381739090,344,0,
1771381739098,345,0,
1771381739102,345,0,
1771381739106,344,0,
1771381739114,344,0,
1771381739118,344,0,
1771381739122,344,0,
1771381739126,345,0,
1771381739135,345,0,
1771381739139,344,0,
1771381739143,345,0,
1771381739147,345,0,
1771381739155,347,0,
1771381739159,356,0,
1771381739163,361,0,
1771381739172,342,0,
1771381739176,300,0,
1771381739180,229,0,
1771381739184,114,0,
1771381739188,0,0,
1771381739192,0,0,
1771381739196,0,0,
1771381739196,0,0,
1771381739200,34,0,
1771381739208,158,0,
1771381739212,311,0,
1771381739217,372,0,
1771381739221,365,0,
1771381739229,357,0,
1771381739233,363,0,
1771381739237,370,0,
1771381739245,377,0,
1771381739249,379,0,
1771381739253,379,0,
1771381739257,381,0,
1771381739266,380,0,
1771381739270,377,0,
1771381739274,378,0,
1771381739278,377,0,
1771381739286,374,0,
1771381739290,371,0,
1771381739294,370,0,
1771381739303,369,0,
1771381739307,367,0,
1771381739311,364,0,
1771381739315,362,0,
1771381739323,359,0,
1771381739327,356,0,
1771381739331,354,0,
1771381739335,349,0,
1771381739344,348,0,
1771381739348,343,0,
1771381739352,337,0,
1771381739356,334,0,
1771381739364,329,0,
1771381739368,324,0,
1771381739372,320,0,
1771381739380,317,0,
1771381739384,312,0,
1771381739389,307,0,
1771381739393,304,0,
1771381739401,303,0,
1771381739405,300,0,
1771381739409,297,0,
1771381739413,297,0,
1771381739421,294,0,
1771381739425,295,0,
1771381739429,294,0,
1771381739438,290,0,
1771381739442,292,0,
1771381739446,294,0,
1771381739450,298,0,
1771381739458,302,0,
1771381739462,309,0,
1771381739466,313,0,
1771381739470,319,0,
1771381739479,325,0,
1771381739483,330,0,
1771381739487,333,0,
1771381739491,338,0,
1771381739499,343,0,
1771381739503,344,0,
1771381739507,348,0,
1771381739516,350,0,
1771381739520,349,0,
1771381739524,351,0,
1771381739528,352,0,
1771381739536,353,0,
1771381739540,353,0,
1771381739544,354,0,
1771381739548,354,0,
1771381739556,354,0,
1771381739561,354,0,
1771381739565,353,0,
1771381739573,352,0,
1771381739577,353,0,
1771381739581,354,0,
1771381739585,351,0,
1771381739594,353,0,
1771381739598,353,0,
1771381739602,352,0,
1771381739606,353,0,
1771381739614,354,0,
1771381739618,352,0,
1771381739622,352,0,
1771381739630,354,0,
1771381739634,353,0,
1771381739638,352,0,
1771381739643,353,0,
1771381739651,353,0,
1771381739655,351,0,
1771381739659,353,0,
1771381739663,351,0,
1771381739672,350,0,
1771381739675,353,0,
1771381739679,354,0,
1771381739683,351,0,
1771381739692,350,0,
1771381739696,350,0,
1771381739700,349,0,
1771381739708,350,0,
1771381739712,351,0,
1771381739716,349,0,
1771381739721,348,0,
1771381739728,349,0,
1771381739733,348,0,
1771381739737,347,0,
1771381739741,349,0,
1771381739749,347,0,
1771381739753,345,0,
1771381739757,346,0,
1771381739765,345,0,
1771381739769,342,0,
1771381739774,343,0,
1771381739778,343,0,
1771381739786,341,0,
1771381739790,336,0,
1771381739794,331,0,
1771381739798,320,0,
1771381739806,315,0,
1771381739810,320,0,
1771381739815,325,0,
1771381739819,327,0,
1771381739827,331,0,
1771381739831,331,0,
1771381739835,332,0,
1771381739843,339,0,
1771381739847,341,0,
1771381739851,341,0,
1771381739855,343,0,
1771381739864,344,0,
1771381739868,343,0,
1771381739872,343,0,
1771381739876,343,0,
1771381739884,344,0,
1771381739888,343,0,
1771381739893,344,0,
1771381739901,344,0,
1771381739905,344,0,
1771381739909,347,0,
1771381739913,346,0,
1771381739921,346,0,
1771381739925,357,0,
1771381739929,360,0,
1771381739933,345,0,
1771381739942,301,0,
1771381739946,232,0,
1771381739950,119,0,
1771381739954,0,0,
1771381739958,0,0,
1771381739962,0,0,
1771381739966,10,0,
1771381739970,96,0,
1771381739974,223,0,
1771381739978,346,0,
1771381739982,375,0,
1771381739991,362,0,
1771381739995,354,0,
1771381739999,360,0,
1771381740003,368,0,
1771381740011,373,0,
1771381740015,375,0,
1771381740019,376,0,
1771381740028,375,0,
1771381740032,375,0,
1771381740036,373,0,
1771381740040,372,0,
1771381740048,371,0,
1771381740052,368,0,
1771381740056,366,0,
1771381740060,367,0,
1771381740068,365,0,
1771381740073,363,0,
1771381740077,360,0,
1771381740081,355,0,
1771381740089,355,0,
1771381740093,352,0,
1771381740097,349,0,
1771381740105,344,0,
1771381740109,341,0,
1771381740113,337,0,
1771381740118,331,0,
1771381740126,326,0,
1771381740130,323,0,
1771381740134,317,0,
1771381740138,311,0,
1771381740146,309,0,
1771381740150,304,0,
1771381740154,301,0,
1771381740163,298,0,
1771381740167,294,0,
1771381740171,290,0,
1771381740175,290,0,
1771381740183,290,0,
1771381740187,288,0,
1771381740191,287,0,
1771381740195,285,0,
1771381740204,284,0,
1771381740208,285,0,
1771381740212,289,0,
1771381740216,293,0,
1771381740224,298,0,
1771381740228,306,0,
1771381740232,311,0,
1771381740240,317,0,
1771381740245,323,0,
1771381740249,328,0,
1771381740253,332,0,
1771381740261,338,0,
1771381740265,342,0,
1771381740269,344,0,
1771381740273,347,0,
1771381740281,349,0,
1771381740286,349,0,
1771381740290,348,0,
1771381740298,350,0,
1771381740302,350,0,
1771381740306,352,0,
1771381740310,352,0,
1771381740318,350,0,
1771381740322,351,0,
1771381740326,352,0,
1771381740331,351,0,
1771381740339,351,0,
1771381740343,352,0,
1771381740347,353,0,
1771381740351,352,0,
1771381740359,352,0,
1771381740363,353,0,
1771381740367,352,0,
1771381740376,352,0,
1771381740380,353,0,
1771381740384,352,0,
1771381740388,355,0,
1771381740396,353,0,
1771381740400,351,0,
1771381740404,353,0,
1771381740408,353,0,
1771381740417,352,0,
1771381740421,351,0,
1771381740425,352,0,
1771381740433,352,0,
1771381740437,351,0,
1771381740441,351,0,
1771381740445,351,0,
1771381740454,350,0,
1771381740458,350,0,
1771381740462,350,0,
1771381740466,350,0,
1771381740474,350,0,
1771381740478,349,0,
1771381740482,349,0,
1771381740490,350,0,
1771381740494,349,0,
1771381740498,347,0,
1771381740503,346,0,
1771381740511,347,0,
1771381740515,347,0,
1771381740519,346,0,
1771381740523,345,0,
1771381740531,344,0,
1771381740535,342,0,
1771381740539,341,0,
1771381740544,344,0,
1771381740552,342,0,
1771381740556,339,0,
1771381740560,335,0,
1771381740568,326,0,
1771381740572,318,0,
1771381740576,319,0,
1771381740580,324,0,
1771381740589,326,0,
1771381740593,329,0,
1771381740597,331,0,
1771381740601,332,0,
1771381740609,335,0,
1771381740613,341,0,
1771381740617,341,0,
1771381740625,341,0,
1771381740630,344,0,
1771381740634,343,0,
1771381740638,343,0,
1771381740646,343,0,
1771381740650,343,0,
1771381740654,343,0,
1771381740658,344,0,
1771381740666,345,0,
1771381740670,343,0,
1771381740675,344,0,
1771381740679,344,0,
1771381740687,343,0,
1771381740691,350,0,
1771381740695,360,0,
1771381740703,354,0,
1771381740707,320,0,
1771381740711,261,0,
1771381740716,166,0,
1771381740720,46,0,
1771381740724,0,0,
1771381740728,0,0,
1771381740732,1,0,
1771381740736,51,0,
1771381740740,166,0,
1771381740744,312,0,
1771381740748,380,0,
1771381740757,376,0,
1771381740761,361,0,
1771381740765,358,0,
1771381740773,363,0,
1771381740777,371,0,
1771381740781,375,0,
1771381740785,375,0,
1771381740793,374,0,
1771381740797,375,0,
1771381740802,375,0,
1771381740806,374,0,
1771381740814,373,0,
1771381740818,372,0,
1771381740822,369,0,
1771381740830,368,0,
1771381740834,366,0,
1771381740838,363,0,
1771381740842,362,0,
1771381740851,361,0,
1771381740855,357,0,
1771381740859,355,0,
1771381740863,353,0,
1771381740871,349,0,
1771381740875,344,0,
1771381740879,339,0,
1771381740884,337,0,
1771381740892,332,0,
1771381740896,328,0,
1771381740900,323,0,
1771381740908,317,0,
1771381740912,313,0,
1771381740916,309,0,
1771381740920,304,0,
1771381740929,302,0,
1771381740933,299,0,
1771381740937,295,0,
1771381740941,295,0,
1771381740949,293,0,
1771381740953,291,0,
1771381740957,289,0,
1771381740965,288,0,
1771381740970,288,0,
1771381740974,288,0,
1771381740978,290,0,
1771381740986,293,0,
1771381740991,298,0,
1771381740994,306,0,
1771381740998,312,0,
1771381741006,317,0,
1771381741010,325,0,
1771381741015,333,0,
1771381741023,337,0,
1771381741027,342,0,
1771381741031,347,0,
1771381741035,352,0,
1771381741043,353,0,
1771381741047,354,0,
1771381741051,356,0,
1771381741055,356,0,
1771381741064,357,0,
1771381741068,357,0,
1771381741072,357,0,
1771381741076,358,0,
1771381741084,359,0,
1771381741088,358,0,
1771381741092,358,0,
1771381741101,358,0,
1771381741105,356,0,
1771381741109,357,0,
1771381741113,358,0,
1771381741121,359,0,
1771381741125,358,0,
1771381741129,357,0,
1771381741133,358,0,
1771381741141,357,0,
1771381741146,358,0,
1771381741150,357,0,
1771381741158,357,0,
1771381741162,358,0,
1771381741166,358,0,
1771381741170,357,0,
1771381741179,358,0,
1771381741182,358,0,
1771381741187,357,0,
1771381741191,358,0,
1771381741199,357,0,
1771381741203,357,0,
1771381741207,356,0,
1771381741211,357,0,
1771381741219,357,0,
1771381741223,357,0,
1771381741228,356,0,
1771381741236,356,0,
1771381741240,355,0,
1771381741244,356,0,
1771381741248,356,0,
1771381741256,354,0,
1771381741260,355,0,
1771381741264,355,0,
1771381741268,352,0,
1771381741277,354,0,
1771381741281,352,0,
1771381741285,351,0,
1771381741293,349,0,
1771381741297,350,0,
1771381741301,351,0,
1771381741305,350,0,
1771381741314,346,0,
1771381741318,340,0,
1771381741322,330,0,
1771381741326,324,0,
1771381741334,326,0,
1771381741338,329,0,
1771381741342,333,0,
1771381741346,335,0,
1771381741354,335,0,
1771381741359,337,0,
1771381741363,342,0,
1771381741371,346,0,
1771381741375,348,0,
1771381741379,349,0,
1771381741383,349,0,
1771381741391,348,0,
1771381741395,349,0,
1771381741399,349,0,
1771381741404,349,0,
1771381741412,349,0,
1771381741416,350,0,
1771381741420,349,0,
1771381741428,350,0,
1771381741432,350,0,
1771381741436,351,0,
1771381741440,350,0,
1771381741449,356,0,
1771381741453,363,0,
1771381741457,356,0,
1771381741461,324,0,
1771381741469,265,0,
1771381741473,170,0,
1771381741477,48,0,
1771381741481,0,0,
1771381741486,0,0,
1771381741486,4,0,
1771381741490,54,0,
1771381741498,166,0,
1771381741502,307,0,
1771381741506,371,0,
1771381741510,369,0,
1771381741518,361,0,
1771381741522,363,0,
1771381741526,371,0,
1771381741531,378,0,
1771381741539,379,0,
1771381741543,381,0,
1771381741547,381,0,
1771381741555,379,0,
1771381741559,379,0,
1771381741563,378,0,
1771381741567,377,0,
1771381741576,376,0,
1771381741580,375,0,
1771381741584,371,0,
1771381741589,369,0,
1771381741596,369,0,
1771381741601,369,0,
1771381741604,364,0,
1771381741608,361,0,
1771381741617,360,0,
1771381741621,356,0,
1771381741625,353,0,
1771381741633,350,0,
1771381741637,345,0,
1771381741641,339,0,
1771381741645,337,0,
1771381741653,331,0,
1771381741658,325,0,
1771381741662,321,0,
1771381741666,316,0,
1771381741674,311,0,
1771381741678,309,0,
1771381741682,306,0,
1771381741690,302,0,
1771381741694,300,0,
1771381741698,300,0,
1771381741703,297,0,
1771381741711,296,0,
1771381741715,297,0,
1771381741719,296,0,
1771381741723,295,0,
1771381741731,297,0,
1771381741735,298,0,
1771381741739,300,0,
1771381741744,306,0,
1771381741752,310,0,
1771381741756,315,0,
1771381741760,322,0,
1771381741768,327,0,
1771381741772,330,0,
1771381741777,335,0,
1771381741780,341,0,
1771381741789,344,0,
1771381741793,346,0,
1771381741797,349,0,
1771381741801,349,0,
1771381741809,350,0,
1771381741813,351,0,
1771381741817,351,0,
1771381741825,352,0,
1771381741830,354,0,
1771381741834,353,0,
1771381741838,354,0,
1771381741846,355,0,
1771381741850,356,0,
1771381741854,353,0,
1771381741858,354,0,
1771381741866,355,0,
1771381741871,353,0,
1771381741875,353,0,
1771381741879,354,0,
1771381741887,353,0,
1771381741891,354,0,
1771381741895,354,0,
1771381741903,352,0,
1771381741907,352,0,
1771381741911,355,0,
1771381741916,352,0,
1771381741924,353,0,
1771381741928,353,0,
1771381741932,355,0,
1771381741936,352,0,
1771381741944,352,0,
1771381741948,353,0,
1771381741952,351,0,
1771381741961,351,0,
1771381741965,352,0,
1771381741969,351,0,
1771381741973,351,0,
1771381741981,353,0,
1771381741985,352,0,
1771381741989,351,0,
1771381741993,352,0,
1771381742002,353,0,
1771381742006,350,0,
1771381742010,350,0,
1771381742018,350,0,
1771381742022,348,0,
1771381742026,348,0,
1771381742030,348,0,
1771381742038,345,0,
1771381742043,346,0,
1771381742047,347,0,
1771381742051,346,0,
1771381742059,344,0,
1771381742063,340,0,
1771381742067,331,0,
1771381742071,322,0,
1771381742079,320,0,
1771381742084,324,0,
1771381742088,326,0,
1771381742096,330,0,
1771381742100,332,0,
1771381742104,333,0,
1771381742108,336,0,
1771381742116,342,0,
1771381742120,345,0,
1771381742124,347,0,
1771381742129,348,0,
1771381742137,345,0,
1771381742141,346,0,
1771381742145,347,0,
1771381742153,346,0,
1771381742157,345,0,
1771381742161,346,0,
1771381742165,349,0,
1771381742174,347,0,
1771381742178,347,0,
1771381742182,347,0,
1771381742186,346,0,
1771381742194,349,0,
1771381742198,360,0,
1771381742202,360,0,
1771381742206,343,0,
1771381742215,299,0,
1771381742219,225,0,
1771381742223,108,0,
1771381742227,0,0,
1771381742231,0,0,
1771381742235,0,0,
1771381742235,0,0,
1771381742239,42,0,
1771381742247,166,0,
1771381742251,314,0,
1771381742255,371,0,
1771381742260,365,0,
1771381742268,358,0,
1771381742272,365,0,
1771381742276,373,0,
1771381742284,377,0,
1771381742288,380,0,
1771381742292,382,0,
1771381742297,380,0,
1771381742305,379,0,
1771381742309,379,0,
1771381742313,380,0,
1771381742317,378,0,
1771381742325,378,0,
1771381742330,375,0,
1771381742333,372,0,
1771381742337,371,0,
1771381742346,369,0,
1771381742350,366,0,
1771381742354,365,0,
1771381742362,361,0,
1771381742366,359,0,
1771381742370,355,0,
1771381742374,352,0,
1771381742383,350,0,
1771381742387,344,0,
1771381742391,340,0,
1771381742395,335,0,
1771381742403,331,0,
1771381742407,328,0,
1771381742411,322,0,
1771381742420,316,0,
1771381742423,313,0,
1771381742428,309,0,
1771381742432,304,0,
1771381742440,303,0,
1771381742444,302,0,
1771381742448,300,0,
1771381742452,297,0,
1771381742460,298,0,
1771381742464,298,0,
1771381742469,297,0,
1771381742473,297,0,
1771381742481,299,0,
1771381742485,300,0,
1771381742489,305,0,
1771381742497,309,0,
1771381742501,311,0,
1771381742505,318,0,
1771381742509,323,0,
1771381742518,328,0,
1771381742522,334,0,
1771381742526,338,0,
1771381742530,343,0,
1771381742538,345,0,
1771381742542,348,0,
1771381742546,350,0,
1771381742554,351,0,
1771381742559,352,0,
1771381742563,353,0,
1771381742567,353,0,
1771381742575,355,0,
1771381742579,356,0,
1771381742583,353,0,
1771381742587,354,0,
1771381742595,355,0,
1771381742600,355,0,
1771381742604,354,0,
1771381742612,355,0,
1771381742616,357,0,
1771381742620,356,0,
1771381742624,356,0,
1771381742632,355,0,
1771381742636,353,0,
1771381742641,353,0,
1771381742645,356,0,
1771381742653,354,0,
1771381742657,354,0,
1771381742661,353,0,
1771381742665,353,0,
1771381742673,355,0,
1771381742677,354,0,
1771381742681,353,0,
1771381742690,353,0,
1771381742694,354,0,
1771381742698,354,0,
1771381742702,354,0,
1771381742710,354,0,
1771381742714,354,0,
1771381742718,352,0,
1771381742722,351,0,
1771381742731,353,0,
1771381742735,352,0,
1771381742739,354,0,
1771381742747,353,0,
1771381742751,350,0,
1771381742755,351,0,
1771381742759,352,0,
1771381742767,350,0,
1771381742772,350,0,
1771381742776,350,0,
1771381742780,350,0,
1771381742788,348,0,
1771381742792,347,0,
1771381742796,346,0,
1771381742801,344,0,
1771381742808,344,0,
1771381742813,346,0,
1771381742817,344,0,
1771381742825,341,0,
1771381742829,335,0,
1771381742833,325,0,
1771381742837,318,0,
1771381742845,319,0,
1771381742849,324,0,
1771381742853,326,0,
1771381742858,329,0,
1771381742866,331,0,
1771381742870,333,0,
1771381742874,336,0,
1771381742882,343,0,
1771381742886,343,0,
1771381742890,345,0,
1771381742894,346,0,
1771381742903,344,0,
1771381742907,345,0,
1771381742911,344,0,
1771381742915,344,0,
1771381742923,345,0,
1771381742927,344,0,
1771381742932,344,0,
1771381742935,345,0,
1771381742944,346,0,
1771381742948,346,0,
1771381742952,344,0,
1771381742960,353,0,
1771381742964,360,0,
1771381742968,353,0,
1771381742972,323,0,
1771381742980,263,0,
1771381742985,168,0,
1771381742989,39,0,
1771381742993,0,0,
1771381742993,0,0,
1771381742997,0,0,
1771381743001,13,0,
1771381743005,124,0,
1771381743013,287,0,
1771381743017,367,0,
1771381743021,368,0,
1771381743030,358,0,
1771381743034,360,0,
1771381743038,369,0,
1771381743042,376,0,
1771381743050,379,0,
1771381743054,382,0,
1771381743058,380,0,
1771381743062,379,0,
1771381743071,378,0,
1771381743075,378,0,
1771381743079,375,0,
1771381743087,375,0,
1771381743091,374,0,
1771381743095,373,0,
1771381743099,370,0,
1771381743107,368,0,
1771381743112,367,0,
1771381743116,364,0,
1771381743120,361,0,
1771381743128,358,0,
1771381743132,356,0,
1771381743136,352,0,
1771381743144,346,0,
1771381743148,341,0,
1771381743152,339,0,
1771381743157,335,0,
1771381743165,330,0,
1771381743169,325,0,
1771381743173,319,0,
1771381743177,315,0,
1771381743185,311,0,
1771381743189,307,0,
1771381743193,304,0,
1771381743198,302,0,
1771381743206,300,0,
1771381743210,297,0,
1771381743214,295,0,
1771381743222,295,0,
1771381743226,292,0,
1771381743230,291,0,
1771381743235,291,0,
1771381743243,293,0,
1771381743247,294,0,
1771381743251,296,0,
1771381743255,302,0,
1771381743263,308,0,
1771381743267,314,0,
1771381743271,318,0,
1771381743279,323,0,
1771381743283,329,0,
1771381743288,334,0,
1771381743292,340,0,
1771381743300,343,0,
1771381743304,347,0,
1771381743308,349,0,
1771381743313,348,0,
1771381743320,350,0,
1771381743324,352,0,
1771381743329,352,0,
1771381743333,354,0,
1771381743341,354,0,
1771381743345,354,0,
1771381743349,352,0,
1771381743357,353,0,
1771381743361,355,0,
1771381743365,354,0,
1771381743370,353,0,
1771381743378,355,0,
1771381743382,353,0,
1771381743386,356,0,
1771381743390,356,0,
1771381743398,354,0,
1771381743402,354,0,
1771381743406,354,0,
1771381743415,354,0,
1771381743419,353,0,
1771381743423,354,0,
1771381743427,355,0,
1771381743435,354,0,
1771381743439,354,0,
1771381743443,354,0,
1771381743447,353,0,
1771381743456,352,0,
1771381743460,353,0,
1771381743464,353,0,
1771381743468,353,0,
1771381743476,352,0,
1771381743480,352,0,
1771381743484,352,0,
1771381743492,352,0,
1771381743496,353,0,
1771381743501,351,0,
1771381743505,351,0,
1771381743513,351,0,
1771381743517,351,0,
1771381743521,350,0,
1771381743525,351,0,
1771381743534,350,0,
1771381743538,349,0,
1771381743542,348,0,
1771381743550,347,0,
1771381743554,348,0,
1771381743558,349,0,
1771381743562,347,0,
1771381743570,345,0,
1771381743574,343,0,
1771381743578,345,0,
1771381743583,344,0,
1771381743591,344,0,
1771381743595,340,0,
1771381743599,334,0,
1771381743607,325,0,
1771381743611,317,0,
1771381743615,317,0,
1771381743619,321,0,
1771381743628,325,0,
1771381743632,327,0,
1771381743636,329,0,
1771381743640,332,0,
1771381743648,335,0,
1771381743652,339,0,
1771381743656,340,0,
1771381743660,342,0,
1771381743669,342,0,
1771381743673,342,0,
1771381743677,344,0,
1771381743685,342,0,
1771381743689,341,0,
1771381743693,342,0,
1771381743697,343,0,
1771381743705,345,0,
1771381743709,345,0,
1771381743714,345,0,
1771381743718,344,0,
1771381743726,343,0,
1771381743730,351,0,
1771381743734,360,0,
1771381743742,358,0,
1771381743746,333,0,
1771381743750,279,0,
1771381743755,193,0,
1771381743759,72,0,
1771381743763,0,0,
1771381743767,0,0,
1771381743771,0,0,
1771381743775,32,0,
1771381743779,140,0,
1771381743783,289,0,
1771381743787,369,0,
1771381743796,370,0,
1771381743800,356,0,
1771381743804,353,0,
1771381743812,362,0,
1771381743816,370,0,
1771381743820,371,0,
1771381743824,371,0,
1771381743832,373,0,
1771381743836,372,0,
1771381743841,371,0,
1771381743845,370,0,
1771381743853,367,0,
1771381743857,366,0,
1771381743861,366,0,
1771381743865,364,0,
1771381743873,361,0,
1771381743877,359,0,
1771381743881,359,0,
1771381743890,354,0,
1771381743894,352,0,
1771381743898,351,0,
1771381743902,347,0,
1771381743910,344,0,
1771381743914,340,0,
1771381743918,334,0,
1771381743922,332,0,
1771381743931,327,0,
1771381743935,320,0,
1771381743939,315,0,
1771381743947,311,0,
1771381743951,308,0,
1771381743955,303,0,
1771381743959,298,0,
1771381743967,294,0,
1771381743972,291,0,
1771381743976,290,0,
1771381743980,288,0,
1771381743989,284,0,
1771381743992,284,0,
1771381743996,282,0,
1771381744001,281,0,
1771381744008,281,0,
1771381744013,283,0,
1771381744017,281,0,
1771381744025,286,0,
1771381744029,293,0,
1771381744033,300,0,
1771381744037,304,0,
1771381744045,310,0,
1771381744049,317,0,
1771381744054,322,0,
1771381744058,330,0,
1771381744066,336,0,
1771381744070,339,0,
1771381744074,343,0,
1771381744082,347,0,
1771381744086,347,0,
1771381744090,349,0,
1771381744094,350,0,
1771381744103,351,0,
1771381744107,352,0,
1771381744111,351,0,
1771381744115,352,0,
1771381744124,351,0,
1771381744127,352,0,
1771381744131,352,0,
1771381744140,351,0,
1771381744144,352,0,
1771381744148,353,0,
1771381744152,352,0,
1771381744160,351,0,
1771381744164,352,0,
1771381744168,352,0,
1771381744172,352,0,
1771381744180,354,0,
1771381744185,353,0,
1771381744189,351,0,
1771381744193,351,0,
1771381744201,352,0,
1771381744205,350,0,
1771381744209,350,0,
1771381744217,352,0,
1771381744221,352,0,
1771381744226,351,0,
1771381744230,352,0,
1771381744238,351,0,
1771381744242,352,0,
1771381744246,353,0,
1771381744250,350,0,
1771381744258,350,0,
1771381744263,350,0,
1771381744267,351,0,
1771381744275,349,0,
1771381744279,350,0,
1771381744283,350,0,
1771381744287,348,0,
1771381744295,349,0,
1771381744299,347,0,
1771381744303,345,0,
1771381744307,347,0,
1771381744316,348,0,
1771381744320,346,0,
1771381744324,346,0,
1771381744328,344,0,
1771381744336,342,0,
1771381744340,344,0,
1771381744344,344,0,
1771381744353,346,0,
1771381744357,341,0,
1771381744361,335,0,
1771381744365,328,0,
1771381744373,317,0,
1771381744377,318,0,
1771381744381,324,0,
1771381744385,326,0,
1771381744393,328,0,
1771381744398,331,0,
1771381744402,333,0,
1771381744410,335,0,
1771381744414,340,0,
1771381744418,340,0,
1771381744422,343,0,
1771381744430,344,0,
1771381744434,344,0,
1771381744439,342,0,
1771381744443,343,0,
1771381744451,342,0,
1771381744455,342,0,
1771381744459,344,0,
1771381744463,345,0,
1771381744471,344,0,
1771381744475,344,0,
1771381744479,345,0,
1771381744488,344,0,
1771381744492,351,0,
1771381744496,359,0,
1771381744500,354,0,
1771381744508,326,0,
1771381744512,270,0,
1771381744516,187,0,
1771381744520,71,0,
1771381744525,0,0,
1771381744529,0,0,
1771381744529,4,0,
1771381744537,50,0,
1771381744541,153,0,
1771381744545,296,0,
1771381744549,373,0,
1771381744557,376,0,
1771381744561,360,0,
1771381744565,356,0,
1771381744570,362,0,
1771381744578,369,0,
1771381744582,372,0,
1771381744586,373,0,
1771381744590,373,0,
1771381744598,375,0,
1771381744602,373,0,
1771381744607,371,0,
1771381744615,371,0,
1771381744619,367,0,
1771381744623,366,0,
1771381744627,367,0,
1771381744635,364,0,
1771381744639,362,0,
1771381744643,362,0,
1771381744647,359,0,
1771381744656,355,0,
1771381744660,353,0,
1771381744664,349,0,
1771381744672,345,0,
1771381744676,343,0,
1771381744680,342,0,
1771381744684,336,0,
1771381744692,330,0,
1771381744697,328,0,
1771381744701,322,0,
1771381744705,317,0,
1771381744713,314,0,
1771381744717,309,0,
1771381744721,305,0,
1771381744725,302,0,
1771381744733,298,0,
1771381744738,296,0,
1771381744742,296,0,
1771381744750,295,0,
1771381744754,291,0,
1771381744758,290,0,
1771381744762,291,0,
1771381744770,288,0,
1771381744774,290,0,
1771381744778,294,0,
1771381744782,296,0,
1771381744791,302,0,
1771381744795,308,0,
1771381744799,316,0,
1771381744807,321,0,
1771381744811,329,0,
1771381744816,335,0,
1771381744819,339,0,
1771381744828,346,0,
1771381744832,351,0,
1771381744836,352,0,
1771381744840,354,0,
1771381744848,359,0,
1771381744852,357,0,
1771381744856,359,0,
1771381744860,360,0,
1771381744869,359,0,
1771381744873,360,0,
1771381744877,361,0,
1771381744885,360,0,
1771381744889,359,0,
1771381744893,360,0,
1771381744897,359,0,
1771381744905,358,0,
1771381744910,359,0,
1771381744914,360,0,
1771381744918,357,0,
1771381744926,357,0,
1771381744930,359,0,
1771381744934,358,0,
1771381744942,358,0,
1771381744946,359,0,
1771381744950,357,0,
1771381744955,359,0,
1771381744963,359,0,
1771381744967,358,0,
1771381744971,358,0,
1771381744975,360,0,
1771381744983,358,0,
1771381744987,357,0,
1771381744991,358,0,
1771381745000,359,0,
1771381745004,358,0,
1771381745008,358,0,
1771381745012,359,0,
1771381745020,357,0,
1771381745024,357,0,
1771381745028,358,0,
1771381745032,357,0,
1771381745041,356,0,
1771381745045,356,0,
1771381745049,356,0,
1771381745053,355,0,
1771381745061,355,0,
1771381745065,353,0,
1771381745069,352,0,
1771381745077,353,0,
1771381745082,354,0,
1771381745086,351,0,
1771381745090,347,0,
1771381745098,344,0,
1771381745102,336,0,
1771381745106,328,0,
1771381745110,327,0,
1771381745118,330,0,
1771381745123,335,0,
1771381745127,338,0,
1771381745135,338,0,
1771381745139,339,0,
1771381745143,344,0,
1771381745147,347,0,
1771381745155,351,0,
1771381745159,352,0,
1771381745163,354,0,
1771381745168,350,0,
1771381745176,349,0,
1771381745180,351,0,
1771381745184,350,0,
1771381745188,351,0,
1771381745196,353,0,
1771381745200,352,0,
1771381745204,352,0,
1771381745213,353,0,
1771381745217,351,0,
1771381745221,350,0,
1771381745225,356,0,
1771381745233,363,0,
1771381745237,361,0,
1771381745241,337,0,
1771381745245,289,0,
1771381745253,212,0,
1771381745258,97,0,
1771381745262,12,0,
1771381745266,0,0,
1771381745266,0,0,
1771381745270,38,0,
1771381745278,140,0,
1771381745282,287,0,
1771381745286,367,0,
1771381745291,372,0,
1771381745299,360,0,
1771381745303,361,0,
1771381745307,371,0,
1771381745311,378,0,
1771381745319,382,0,
1771381745323,381,0,
1771381745327,380,0,
1771381745335,381,0,
1771381745340,380,0,
1771381745344,380,0,
1771381745348,378,0,
1771381745356,376,0,
1771381745360,375,0,
1771381745364,374,0,
1771381745368,372,0,
1771381745376,369,0,
1771381745380,368,0,
1771381745385,364,0,
1771381745389,363,0,
1771381745397,361,0,
1771381745401,360,0,
1771381745405,353,0,
1771381745414,350,0,
1771381745418,346,0,
1771381745422,342,0,
1771381745426,338,0,
1771381745434,332,0,
1771381745438,327,0,
1771381745442,322,0,
1771381745446,317,0,
1771381745454,312,0,
1771381745458,309,0,
1771381745462,307,0,
1771381745471,304,0,
1771381745475,301,0,
1771381745479,299,0,
1771381745483,299,0,
1771381745491,297,0,
1771381745495,298,0,
1771381745499,298,0,
1771381745503,297,0,
1771381745512,297,0,
1771381745516,298,0,
1771381745520,301,0,
1771381745524,307,0,
1771381745532,311,0,
1771381745536,314,0,
1771381745540,321,0,
1771381745548,327,0,
1771381745552,331,0,
1771381745557,338,0,
1771381745561,342,0,
1771381745569,346,0,
1771381745573,347,0,
1771381745577,348,0,
1771381745581,350,0,
1771381745589,351,0,
1771381745593,353,0,
1771381745597,354,0,
1771381745606,354,0,
1771381745610,355,0,
1771381745615,356,0,
1771381745618,355,0,
1771381745626,354,0,
1771381745630,355,0,
1771381745634,353,0,
1771381745638,355,0,
1771381745647,356,0,
1771381745651,357,0,
1771381745655,355,0,
1771381745659,354,0,
1771381745667,354,0,
1771381745671,353,0,
1771381745676,354,0,
1771381745684,355,0,
1771381745688,355,0,
1771381745692,354,0,
1771381745696,354,0,
1771381745704,354,0,
1771381745708,355,0,
1771381745712,355,0,
1771381745716,355,0,
1771381745725,353,0,
1771381745729,352,0,
1771381745733,353,0,
1771381745741,352,0,
1771381745745,352,0,
1771381745749,353,0,
1771381745753,351,0,
1771381745761,351,0,
1771381745765,351,0,
1771381745770,351,0,
1771381745774,351,0,
1771381745782,350,0,
1771381745786,350,0,
1771381745790,350,0,
1771381745798,350,0,
1771381745802,350,0,
1771381745806,347,0,
1771381745811,347,0,
1771381745819,347,0,
1771381745823,345,0,
1771381745827,342,0,
1771381745831,338,0,
1771381745839,331,0,
1771381745843,321,0,
1771381745847,319,0,
1771381745851,322,0,
1771381745860,327,0,
1771381745864,331,0,
1771381745868,331,0,
1771381745876,333,0,
1771381745880,338,0,
1771381745884,343,0,
1771381745888,345,0,
1771381745896,345,0,
1771381745901,345,0,
1771381745905,344,0,
1771381745909,345,0,
1771381745917,345,0,
1771381745921,344,0,
1771381745925,347,0,
1771381745933,346,0,
1771381745937,345,0,
1771381745942,347,0,
1771381745946,347,0,
1771381745954,346,0,
1771381745958,346,0,
1771381745962,351,0,
1771381745966,361,0,
1771381745974,358,0,
1771381745978,332,0,
1771381745982,281,0,
1771381745987,195,0,
1771381745995,66,0,
1771381745995,0,0,
1771381745999,0,0,
1771381746003,0,0,
1771381746007,0,0,
1771381746011,37,0,
1771381746015,165,0,
1771381746019,317,0,
1771381746024,371,0,
1771381746032,364,0,
1771381746036,357,0,
1771381746040,366,0,
1771381746044,375,0,
1771381746052,381,0,
1771381746056,381,0,
1771381746060,379,0,
1771381746069,381,0,
1771381746073,380,0,
1771381746077,381,0,
1771381746081,380,0,
1771381746089,377,0,
1771381746093,377,0,
1771381746097,376,0,
1771381746101,373,0,
1771381746109,372,0,
1771381746114,369,0,
1771381746118,365,0,
1771381746122,364,0,
1771381746130,361,0,
1771381746134,360,0,
1771381746138,356,0,
1771381746146,352,0,
1771381746150,348,0,
1771381746155,342,0,
1771381746159,339,0,
1771381746167,335,0,
1771381746171,329,0,
1771381746175,325,0,
1771381746179,321,0,
1771381746187,315,0,
1771381746191,311,0,
1771381746196,308,0,
1771381746204,305,0,
1771381746208,302,0,
1771381746212,300,0,
1771381746216,300,0,
1771381746224,299,0,
1771381746229,299,0,
1771381746233,297,0,
1771381746237,296,0,
1771381746245,298,0,
1771381746249,298,0,
1771381746253,301,0,
1771381746261,306,0,
1771381746265,311,0,
1771381746269,315,0,
1771381746273,321,0,
1771381746282,326,0,
1771381746286,330,0,
1771381746290,335,0,
1771381746294,340,0,
1771381746302,345,0,
1771381746306,346,0,
1771381746310,349,0,
1771381746314,351,0,
1771381746323,350,0,
1771381746327,353,0,
1771381746331,353,0,
1771381746339,353,0,
1771381746343,355,0,
1771381746347,355,0,
1771381746351,354,0,
1771381746359,355,0,
1771381746363,356,0,
1771381746368,357,0,
1771381746372,355,0,
1771381746380,354,0,
1771381746384,355,0,
1771381746388,355,0,
1771381746396,355,0,
1771381746400,356,0,
1771381746405,354,0,
1771381746408,355,0,
1771381746417,355,0,
1771381746421,354,0,
1771381746425,354,0,
1771381746430,354,0,
1771381746437,354,0,
1771381746441,356,0,
1771381746445,355,0,
1771381746449,354,0,
1771381746458,353,0,
1771381746462,354,0,
1771381746466,354,0,
1771381746474,354,0,
1771381746478,354,0,
1771381746482,353,0,
1771381746486,352,0,
1771381746494,353,0,
1771381746499,352,0,
1771381746503,351,0,
1771381746507,352,0,
1771381746515,352,0,
1771381746519,350,0,
1771381746523,350,0,
1771381746531,350,0,
1771381746535,351,0,
1771381746540,349,0,
1771381746544,347,0,
1771381746552,347,0,
1771381746556,346,0,
1771381746561,348,0,
1771381746564,346,0,
1771381746572,340,0,
1771381746576,333,0,
1771381746581,321,0,
1771381746585,316,0,
1771381746593,320,0,
1771381746597,327,0,
1771381746601,328,0,
1771381746609,333,0,
1771381746613,335,0,
1771381746618,339,0,
1771381746622,342,0,
1771381746630,344,0,
1771381746634,346,0,
1771381746638,346,0,
1771381746642,346,0,
1771381746650,346,0,
1771381746655,346,0,
1771381746658,348,0,
1771381746666,346,0,
1771381746671,345,0,
1771381746675,347,0,
1771381746679,348,0,
1771381746687,347,0,
1771381746691,348,0,
1771381746695,347,0,
1771381746699,351,0,
1771381746707,361,0,
1771381746712,365,0,
1771381746716,348,0,
1771381746720,301,0,
1771381746728,225,0,
1771381746732,102,0,
1771381746736,0,0,
1771381746740,0,0,
1771381746740,0,0,
1771381746744,0,0,
1771381746748,28,0,
1771381746753,156,0,
1771381746761,316,0,
1771381746765,375,0,
1771381746769,367,0,
1771381746773,362,0,
1771381746781,367,0,
1771381746785,374,0,
1771381746789,381,0,
1771381746798,384,0,
1771381746802,383,0,
1771381746806,384,0,
1771381746810,383,0,
1771381746818,380,0,
1771381746822,380,0,
1771381746826,378,0,
1771381746830,376,0,
1771381746838,374,0,
1771381746843,372,0,
1771381746847,370,0,
1771381746851,366,0,
1771381746859,367,0,
1771381746863,364,0,
1771381746867,359,0,
1771381746875,358,0,
1771381746880,355,0,
1771381746884,349,0,
1771381746888,345,0,
1771381746896,341,0,
1771381746900,337,0,
1771381746904,333,0,
1771381746908,329,0,
1771381746916,323,0,
1771381746920,317,0,
1771381746925,313,0,
1771381746933,309,0,
1771381746937,305,0,
1771381746941,303,0,
1771381746945,299,0,
1771381746953,296,0,
1771381746957,295,0,
1771381746961,294,0,
1771381746966,292,0,
1771381746974,292,0,
1771381746978,291,0,
1771381746982,291,0,
1771381746990,292,0,
1771381746994,296,0,
1771381746998,300,0,
1771381747002,306,0,
1771381747011,312,0,
1771381747015,317,0,
1771381747019,321,0,
1771381747023,330,0,
1771381747031,334,0,
1771381747035,338,0,
1771381747039,343,0,
1771381747043,347,0,
1771381747051,349,0,
1771381747056,352,0,
1771381747060,354,0,
1771381747068,353,0,
1771381747072,354,0,
1771381747076,357,0,
1771381747080,355,0,
1771381747088,355,0,
1771381747092,357,0,
1771381747097,356,0,
1771381747101,353,0,
1771381747109,357,0,
1771381747113,357,0,
1771381747117,356,0,
1771381747125,358,0,
1771381747129,358,0,
1771381747133,355,0,
1771381747138,356,0,
1771381747146,357,0,
1771381747150,356,0,
1771381747154,356,0,
1771381747159,355,0,
1771381747166,355,0,
1771381747170,354,0,
1771381747174,356,0,
1771381747178,357,0,
1771381747187,354,0,
1771381747191,355,0,
1771381747195,354,0,
1771381747203,353,0,
1771381747208,355,0,
1771381747211,354,0,
1771381747215,353,0,
1771381747224,353,0,
1771381747228,355,0,
1771381747232,353,0,
1771381747236,353,0,
1771381747244,353,0,
1771381747248,352,0,
1771381747252,350,0,
1771381747260,353,0,
1771381747264,351,0,
1771381747269,348,0,
1771381747273,348,0,
1771381747281,347,0,
1771381747285,347,0,
1771381747289,347,0,
1771381747293,345,0,
1771381747301,339,0,
1771381747305,336,0,
1771381747310,327,0,
1771381747314,316,0,
1771381747322,316,0,
1771381747326,321,0,
1771381747330,326,0,
1771381747339,330,0,
1771381747343,334,0,
1771381747346,334,0,
1771381747351,336,0,
1771381747359,343,0,
1771381747363,344,0,
1771381747367,344,0,
1771381747371,345,0,
1771381747379,345,0,
1771381747383,344,0,
1771381747388,344,0,
1771381747395,346,0,
1771381747400,345,0,
1771381747404,346,0,
1771381747408,346,0,
1771381747416,348,0,
1771381747420,346,0,
1771381747424,348,0,
1771381747428,347,0,
1771381747437,351,0,
1771381747441,363,0,
1771381747445,362,0,
1771381747449,332,0,
1771381747457,278,0,
1771381747461,186,0,
1771381747465,55,0,
1771381747469,0,0,
1771381747473,0,0,
1771381747473,0,0,
1771381747477,5,0,
1771381747482,73,0,
1771381747486,208,0,
1771381747494,343,0,
1771381747498,377,0,
1771381747502,361,0,
1771381747506,357,0,
1771381747514,362,0,
1771381747518,368,0,
1771381747522,375,0,
1771381747531,377,0,
1771381747535,377,0,
1771381747539,377,0,
1771381747543,377,0,
1771381747551,374,0,
1771381747555,373,0,
1771381747559,371,0,
1771381747563,368,0,
1771381747572,366,0,
1771381747576,364,0,
1771381747580,361,0,
1771381747588,358,0,
1771381747593,358,0,
1771381747596,356,0,
1771381747600,352,0,
1771381747609,350,0,
1771381747613,346,0,
1771381747617,341,0,
1771381747621,338,0,
1771381747629,334,0,
1771381747633,329,0,
1771381747637,324,0,
1771381747641,320,0,
1771381747649,315,0,
1771381747654,309,0,
1771381747658,306,0,
1771381747666,300,0,
1771381747670,294,0,
1771381747674,294,0,
1771381747678,292,0,
1771381747686,288,0,
1771381747691,287,0,
1771381747694,283,0,
1771381747699,281,0,
1771381747707,281,0,
1771381747711,283,0,
1771381747715,282,0,
1771381747723,284,0,
1771381747727,289,0,
1771381747732,295,0,
1771381747735,299,0,
1771381747744,307,0,
1771381747748,311,0,
1771381747752,317,0,
1771381747756,326,0,
1771381747764,331,0,
1771381747768,335,0,
1771381747772,342,0,
1771381747776,345,0,
1771381747785,345,0,
1771381747789,347,0,
1771381747793,350,0,
1771381747801,349,0,
1771381747805,349,0,
1771381747809,350,0,
1771381747814,350,0,
1771381747821,351,0,
1771381747826,355,0,
1771381747830,352,0,
1771381747834,351,0,
1771381747842,354,0,
1771381747846,353,0,
1771381747850,351,0,
1771381747858,352,0,
1771381747862,352,0,
1771381747866,351,0,
1771381747871,351,0,
1771381747879,353,0,
1771381747883,352,0,
1771381747887,351,0,
1771381747891,351,0,
1771381747899,350,0,
1771381747903,350,0,
1771381747907,352,0,
1771381747912,350,0,
1771381747920,349,0,
1771381747924,352,0,
1771381747928,352,0,
1771381747936,349,0,
1771381747940,351,0,
1771381747944,350,0,
1771381747948,350,0,
1771381747957,350,0,
1771381747961,350,0,
1771381747965,348,0,
1771381747969,348,0,
1771381747977,347,0,
1771381747981,347,0,
1771381747985,344,0,
1771381747994,345,0,
1771381747998,344,0,
1771381748002,343,0,
1771381748006,344,0,
1771381748014,339,0,
1771381748018,332,0,
1771381748022,325,0,
1771381748027,317,0,
1771381748034,318,0,
1771381748039,324,0,
1771381748043,329,0,
1771381748051,331,0,
1771381748055,331,0,
1771381748059,334,0,
1771381748063,339,0,
1771381748071,340,0,
1771381748075,344,0,
1771381748079,344,0,
1771381748084,342,0,
1771381748093,345,0,
1771381748096,345,0,
1771381748100,344,0,
1771381748104,344,0,
1771381748112,345,0,
1771381748116,344,0,
1771381748120,345,0,
1771381748129,345,0,
1771381748133,345,0,
1771381748137,343,0,
1771381748141,347,0,
1771381748149,352,0,
1771381748153,357,0,
1771381748157,351,0,
1771381748161,312,0,
1771381748170,245,0,
1771381748174,146,0,
1771381748178,22,0,
1771381748182,0,0,
1771381748186,0,0,
1771381748186,1,0,
1771381748190,55,0,
1771381748198,178,0,
1771381748203,324,0,
1771381748206,385,0,
1771381748211,375,0,
1771381748219,357,0,
1771381748223,359,0,
1771381748227,367,0,
1771381748231,372,0,
1771381748239,377,0,
1771381748243,376,0,
1771381748247,374,0,
1771381748256,374,0,
1771381748260,374,0,
1771381748264,372,0,
1771381748268,371,0,
1771381748276,370,0,
1771381748280,369,0,
1771381748284,367,0,
1771381748288,365,0,
1771381748297,363,0,
1771381748301,360,0,
1771381748305,358,0,
1771381748309,355,0,
1771381748317,351,0,
1771381748321,348,0,
1771381748325,345,0,
1771381748333,341,0,
1771381748338,338,0,
1771381748342,335,0,
1771381748346,329,0,
1771381748354,323,0,
1771381748358,319,0,
1771381748362,314,0,
1771381748366,309,0,
1771381748374,306,0,
1771381748378,304,0,
1771381748383,300,0,
1771381748391,299,0,
1771381748395,295,0,
1771381748399,291,0,
1771381748403,291,0,
1771381748411,289,0,
1771381748415,287,0,
1771381748419,286,0,
1771381748423,287,0,
1771381748432,287,0,
1771381748436,290,0,
1771381748440,296,0,
1771381748444,302,0,
1771381748452,307,0,
1771381748456,315,0,
1771381748460,324,0,
1771381748469,330,0,
1771381748473,338,0,
1771381748477,343,0,
1771381748481,345,0,
1771381748489,350,0,
1771381748493,354,0,
1771381748497,354,0,
1771381748502,356,0,
1771381748510,358,0,
1771381748514,358,0,
1771381748518,356,0,
1771381748526,358,0,
1771381748530,358,0,
1771381748534,358,0,
1771381748538,357,0,
1771381748546,358,0,
1771381748551,357,0,
1771381748555,359,0,
1771381748559,357,0,
1771381748567,355,0,
1771381748572,357,0,
1771381748575,358,0,
1771381748583,357,0,
1771381748587,357,0,
1771381748591,358,0,
1771381748596,358,0,
1771381748604,356,0,
1771381748608,357,0,
1771381748612,358,0,
1771381748616,357,0,
1771381748624,356,0,
1771381748628,357,0,
1771381748632,355,0,
1771381748636,358,0,
1771381748645,358,0,
1771381748649,356,0,
1771381748653,356,0,
1771381748661,356,0,
1771381748665,355,0,
1771381748669,354,0,
1771381748673,356,0,
1771381748682,355,0,
1771381748686,352,0,
1771381748690,351,0,
1771381748694,353,0,
1771381748702,352,0,
1771381748706,349,0,
1771381748710,347,0,
1771381748718,340,0,
1771381748722,334,0,
1771381748727,326,0,
1771381748731,326,0,
1771381748739,332,0,
1771381748743,336,0,
1771381748747,337,0,
1771381748751,338,0,
1771381748759,341,0,
1771381748763,345,0,
1771381748768,348,0,
1771381748772,350,0,
1771381748780,351,0,
1771381748784,350,0,
1771381748788,351,0,
1771381748796,350,0,
1771381748800,349,0,
1771381748804,351,0,
1771381748809,351,0,
1771381748817,350,0,
1771381748821,351,0,
1771381748825,352,0,
1771381748829,351,0,
1771381748837,350,0,
1771381748841,351,0,
1771381748845,359,0,
1771381748854,365,0,
1771381748858,359,0,
1771381748862,325,0,
1771381748866,267,0,
1771381748874,172,0,
1771381748878,43,0,
1771381748878,0,0,
1771381748882,0,0,
1771381748886,0,0,
1771381748890,35,0,
1771381748894,148,0,
1771381748899,303,0,
1771381748907,378,0,
1771381748911,376,0,
1771381748915,361,0,
1771381748923,363,0,
1771381748927,372,0,
1771381748931,378,0,
1771381748936,380,0,
1771381748944,383,0,
1771381748948,382,0,
1771381748952,383,0,
1771381748956,382,0,
1771381748964,380,0,
1771381748968,378,0,
1771381748972,377,0,
1771381748980,375,0,
1771381748985,373,0,
1771381748989,372,0,
1771381748993,371,0,
1771381749001,367,0,
1771381749005,364,0,
1771381749009,363,0,
1771381749013,360,0,
1771381749021,356,0,
1771381749026,355,0,
1771381749030,350,0,
1771381749034,347,0,
1771381749042,342,0,
1771381749046,336,0,
1771381749050,333,0,
1771381749058,328,0,
1771381749062,323,0,
1771381749067,319,0,
1771381749071,316,0,
1771381749079,313,0,
1771381749083,308,0,
1771381749087,305,0,
1771381749091,303,0,
1771381749099,301,0,
1771381749103,300,0,
1771381749107,300,0,
1771381749116,298,0,
1771381749120,297,0,
1771381749124,297,0,
1771381749128,297,0,
1771381749136,300,0,
1771381749140,305,0,
1771381749144,310,0,
1771381749148,315,0,
1771381749157,321,0,
1771381749161,327,0,
1771381749165,333,0,
1771381749169,339,0,
1771381749177,345,0,
1771381749181,348,0,
1771381749185,350,0,
1771381749193,354,0,
1771381749198,355,0,
1771381749202,356,0,
1771381749206,357,0,
1771381749214,356,0,
1771381749218,357,0,
1771381749222,358,0,
1771381749226,358,0,
1771381749235,357,0,
1771381749239,356,0,
1771381749243,359,0,
1771381749251,358,0,
1771381749255,358,0,
1771381749259,359,0,
1771381749264,359,0,
1771381749272,358,0,
1771381749275,359,0,
1771381749280,357,0,
1771381749284,357,0,
1771381749292,357,0,
1771381749296,356,0,
1771381749300,357,0,
1771381749304,356,0,
1771381749312,356,0,
1771381749317,355,0,
1771381749321,355,0,
1771381749329,356,0,
1771381749333,355,0,
1771381749337,356,0,
1771381749341,357,0,
1771381749349,356,0,
1771381749353,355,0,
1771381749357,356,0,
1771381749362,353,0,
1771381749370,354,0,
1771381749374,353,0,
1771381749378,352,0,
1771381749386,351,0,
1771381749390,350,0,
1771381749395,350,0,
1771381749399,350,0,
1771381749406,349,0,
1771381749411,345,0,
1771381749415,339,0,
1771381749419,329,0,
1771381749427,324,0,
1771381749432,324,0,
1771381749435,330,0,
1771381749443,334,0,
1771381749447,335,0,
1771381749451,337,0,
1771381749456,340,0,
1771381749464,344,0,
1771381749468,348,0,
1771381749472,350,0,
1771381749476,351,0,
1771381749484,352,0,
1771381749489,351,0,
1771381749493,352,0,
1771381749497,350,0,
1771381749505,350,0,
1771381749509,351,0,
1771381749513,351,0,
1771381749521,352,0,
1771381749525,351,0,
1771381749529,350,0,
1771381749533,350,0,
1771381749542,350,0,
1771381749547,360,0,
1771381749550,365,0,
1771381749554,355,0,
1771381749562,318,0,
1771381749566,253,0,
1771381749570,143,0,
1771381749574,4,0,
1771381749578,0,0,
1771381749583,0,0,
1771381749583,0,0,
1771381749587,0,0,
1771381749591,48,0,
1771381749595,187,0,
1771381749603,334,0,
1771381749607,373,0,
1771381749611,366,0,
1771381749615,361,0,
1771381749624,369,0,
1771381749628,379,0,
1771381749632,383,0,
1771381749636,384,0,
1771381749644,385,0,
1771381749648,385,0,
1771381749652,384,0,
1771381749660,384,0,
1771381749665,382,0,
1771381749669,379,0,
1771381749673,379,0,
1771381749681,379,0,
1771381749685,374,0,
1771381749689,371,0,
1771381749693,373,0,
1771381749701,368,0,
1771381749705,364,0,
1771381749710,363,0,
1771381749718,360,0,
1771381749722,355,0,
1771381749726,353,0,
1771381749730,348,0,
1771381749738,344,0,
1771381749742,341,0,
1771381749747,335,0,
1771381749751,330,0,
1771381749759,325,0,
1771381749763,322,0,
1771381749767,316,0,
1771381749775,312,0,
1771381749779,311,0,
1771381749783,307,0,
1771381749787,303,0,
1771381749796,303,0,
1771381749800,300,0,
1771381749804,300,0,
1771381749808,302,0,
1771381749816,301,0,
1771381749820,299,0,
1771381749824,302,0,
1771381749828,303,0,
1771381749837,305,0,
1771381749841,310,0,
1771381749845,317,0,
1771381749853,319,0,
1771381749857,322,0,
1771381749861,329,0,
1771381749865,333,0,
1771381749873,338,0,
1771381749878,343,0,
1771381749882,345,0,
1771381749886,347,0,
1771381749894,350,0,
1771381749898,351,0,
1771381749902,352,0,
1771381749910,354,0,
1771381749914,353,0,
1771381749918,353,0,
1771381749922,355,0,
1771381749931,358,0,
1771381749935,354,0,
1771381749939,354,0,
1771381749943,355,0,
1771381749951,355,0,
1771381749955,356,0,
1771381749959,358,0,
1771381749963,355,0,
1771381749972,355,0,
1771381749976,356,0,
1771381749980,356,0,
1771381749988,355,0,
1771381749992,355,0,
1771381749996,354,0,
1771381750000,354,0,
1771381750008,354,0,
1771381750013,356,0,
1771381750017,354,0,
1771381750021,353,0,
1771381750029,356,0,
1771381750033,353,0,
1771381750037,354,0,
1771381750046,354,0,
1771381750050,355,0,
1771381750054,355,0,
1771381750058,356,0,
1771381750066,354,0,
1771381750070,353,0,
1771381750074,353,0,
1771381750078,352,0,
1771381750086,350,0,
1771381750090,348,0,
1771381750095,350,0,
1771381750099,349,0,
1771381750107,349,0,
1771381750111,349,0,
1771381750115,343,0,
1771381750123,337,0,
1771381750127,328,0,
1771381750131,318,0,
1771381750136,320,0,
1771381750144,325,0,
1771381750148,330,0,
1771381750152,332,0,
1771381750156,334,0,
1771381750164,339,0,
1771381750168,342,0,
1771381750172,345,0,
1771381750181,349,0,
1771381750185,349,0,
1771381750189,349,0,
1771381750193,351,0,
1771381750201,348,0,
1771381750205,347,0,
1771381750209,350,0,
1771381750213,349,0,
1771381750222,348,0,
1771381750226,351,0,
1771381750230,350,0,
1771381750234,349,0,
1771381750242,349,0,
1771381750246,352,0,
1771381750250,358,0,
1771381750258,365,0,
1771381750262,358,0,
1771381750267,320,0,
1771381750271,256,0,
1771381750279,146,0,
1771381750279,4,0,
1771381750283,0,0,
1771381750287,0,0,
1771381750292,0,0,
1771381750292,0,0,
1771381750296,52,0,
1771381750303,192,0,
1771381750308,336,0,
1771381750312,375,0,
1771381750320,363,0,
1771381750324,363,0,
1771381750328,371,0,
1771381750332,377,0,
1771381750340,383,0,
1771381750344,384,0,
1771381750348,382,0,
1771381750353,384,0,
1771381750361,384,0,
1771381750365,381,0,
1771381750369,380,0,
1771381750377,380,0,
1771381750381,377,0,
1771381750385,375,0,
1771381750389,374,0,
1771381750398,371,0,
1771381750402,368,0,
1771381750406,368,0,
1771381750410,364,0,
1771381750418,358,0,
1771381750422,358,0,
1771381750426,355,0,
1771381750430,350,0,
1771381750439,345,0,
1771381750443,341,0,
1771381750447,336,0,
1771381750455,332,0,
1771381750459,328,0,
1771381750463,324,0,
1771381750467,318,0,
1771381750475,315,0,
1771381750480,310,0,
1771381750484,305,0,
1771381750488,305,0,
1771381750496,302,0,
1771381750500,298,0,
1771381750504,298,0,
1771381750512,298,0,
1771381750516,295,0,
1771381750520,295,0,
1771381750525,294,0,
1771381750533,296,0,
1771381750537,298,0,
1771381750541,302,0,
1771381750545,306,0,
1771381750553,311,0,
1771381750557,317,0,
1771381750561,323,0,
1771381750566,328,0,
1771381750574,335,0,
1771381750578,338,0,
1771381750582,341,0,
1771381750590,346,0,
1771381750594,349,0,
1771381750598,349,0,
1771381750602,351,0,
1771381750611,354,0,
1771381750615,353,0,
1771381750619,353,0,
1771381750623,355,0,
1771381750631,354,0,
1771381750635,354,0,
1771381750639,356,0,
1771381750647,356,0,
1771381750652,355,0,
1771381750656,358,0,
1771381750660,357,0,
1771381750668,355,0,
1771381750672,357,0,
1771381750676,357,0,
1771381750680,355,0,
1771381750688,356,0,
1771381750693,357,0,
1771381750697,356,0,
1771381750705,355,0,
1771381750709,356,0,
1771381750713,356,0,
1771381750717,354,0,
1771381750725,356,0,
1771381750729,356,0,
1771381750733,353,0,
1771381750738,355,0,
1771381750746,354,0,
1771381750750,352,0,
1771381750754,354,0,
1771381750758,354,0,
1771381750766,352,0,
1771381750770,352,0,
1771381750774,352,0,
1771381750783,352,0,
1771381750787,350,0,
1771381750791,351,0,
1771381750795,351,0,
1771381750803,351,0,
1771381750807,348,0,
1771381750811,347,0,
1771381750815,346,0,
1771381750824,349,0,
1771381750828,348,0,
1771381750832,344,0,
1771381750840,339,0,
1771381750844,334,0,
1771381750848,321,0,
1771381750852,316,0,
1771381750860,320,0,
1771381750864,325,0,
1771381750869,329,0,
1771381750873,333,0,
1771381750881,334,0,
1771381750885,337,0,
1771381750889,343,0,
1771381750893,345,0,
1771381750901,344,0,
1771381750906,347,0,
1771381750910,346,0,
1771381750918,345,0,
1771381750922,346,0,
1771381750926,346,0,
1771381750930,345,0,
1771381750938,346,0,
1771381750942,346,0,
1771381750946,345,0,
1771381750951,346,0,
1771381750959,349,0,
1771381750963,347,0,
1771381750967,351,0,
1771381750975,364,0,
1771381750979,367,0,
1771381750983,348,0,
1771381750987,303,0,
1771381750996,226,0,
1771381751000,102,0,
1771381751004,0,0,
1771381751004,0,0,
1771381751008,0,0,
1771381751012,0,0,
1771381751016,57,0,
1771381751021,189,0,
1771381751025,335,0,
1771381751032,379,0,
1771381751037,365,0,
1771381751041,356,0,
1771381751049,360,0,
1771381751053,368,0,
1771381751057,374,0,
1771381751061,376,0,
1771381751069,374,0,
1771381751073,375,0,
1771381751078,376,0,
1771381751082,374,0,
1771381751090,373,0,
1771381751094,373,0,
1771381751098,369,0,
1771381751106,368,0,
1771381751110,367,0,
1771381751114,364,0,
1771381751118,360,0,
1771381751127,359,0,
1771381751131,354,0,
1771381751135,353,0,
1771381751139,350,0,
1771381751147,349,0,
1771381751151,343,0,
1771381751155,339,0,
1771381751159,335,0,
1771381751168,329,0,
1771381751172,325,0,
1771381751176,322,0,
1771381751184,317,0,
1771381751188,312,0,
1771381751192,309,0,
1771381751196,303,0,
1771381751204,299,0,
1771381751209,296,0,
1771381751213,295,0,
1771381751217,290,0,
1771381751225,289,0,
1771381751229,289,0,
1771381751234,286,0,
1771381751241,284,0,
1771381751245,285,0,
1771381751250,283,0,
1771381751254,285,0,
1771381751262,290,0,
1771381751266,294,0,
1771381751270,299,0,
1771381751274,307,0,
1771381751282,313,0,
1771381751286,320,0,
1771381751290,326,0,
1771381751295,333,0,
1771381751303,337,0,
1771381751307,340,0,
1771381751311,345,0,
1771381751319,345,0,
1771381751323,347,0,
1771381751327,350,0,
1771381751331,349,0,
1771381751340,352,0,
1771381751344,353,0,
1771381751348,353,0,
1771381751352,353,0,
1771381751360,354,0,
1771381751364,353,0,
1771381751368,352,0,
1771381751376,354,0,
1771381751381,354,0,
1771381751385,352,0,
1771381751389,352,0,
1771381751397,353,0,
1771381751401,351,0,
1771381751405,352,0,
1771381751409,353,0,
1771381751417,352,0,
1771381751422,353,0,
1771381751426,354,0,
1771381751434,353,0,
1771381751438,353,0,
1771381751442,352,0,
1771381751446,351,0,
1771381751455,351,0,
1771381751459,352,0,
1771381751463,353,0,
1771381751467,350,0,
1771381751475,351,0,
1771381751479,353,0,
1771381751483,350,0,
1771381751487,350,0,
1771381751495,352,0,
1771381751499,350,0,
1771381751503,350,0,
1771381751512,350,0,
1771381751516,350,0,
1771381751520,349,0,
1771381751524,347,0,
1771381751532,344,0,
1771381751536,344,0,
1771381751540,344,0,
1771381751544,346,0,
1771381751553,341,0,
1771381751557,336,0,
1771381751561,330,0,
1771381751569,319,0,
1771381751573,318,0,
1771381751577,324,0,
1771381751581,327,0,
1771381751589,330,0,
1771381751594,333,0,
1771381751598,334,0,
1771381751602,338,0,
1771381751610,342,0,
1771381751614,343,0,
1771381751618,342,0,
1771381751622,345,0,
1771381751630,347,0,
1771381751635,344,0,
1771381751639,343,0,
1771381751647,345,0,
1771381751651,343,0,
1771381751655,344,0,
1771381751659,345,0,
1771381751667,345,0,
1771381751671,344,0,
1771381751675,345,0,
1771381751679,344,0,
1771381751688,352,0,
1771381751692,362,0,
1771381751696,355,0,
1771381751704,320,0,
1771381751708,261,0,
1771381751712,167,0,
1771381751716,42,0,
1771381751721,0,0,
1771381751725,0,0,
1771381751725,0,0,
1771381751729,50,0,
1771381751737,163,0,
1771381751741,309,0,
1771381751745,378,0,
1771381751749,373,0,
1771381751757,358,0,
1771381751761,357,0,
1771381751766,363,0,
1771381751774,372,0,
1771381751778,375,0,
1771381751782,375,0,
1771381751786,375,0,
1771381751794,377,0,
1771381751798,374,0,
1771381751802,371,0,
1771381751807,373,0,
1771381751815,370,0,
1771381751819,369,0,
1771381751823,369,0,
1771381751831,367,0,
1771381751835,364,0,
1771381751839,362,0,
1771381751843,359,0,
1771381751852,357,0,
1771381751856,355,0,
1771381751860,353,0,
1771381751864,348,0,
1771381751872,343,0,
1771381751876,342,0,
1771381751880,336,0,
1771381751884,331,0,
1771381751893,328,0,
1771381751897,322,0,
1771381751901,317,0,
1771381751909,314,0,
1771381751913,309,0,
1771381751917,305,0,
1771381751921,303,0,
1771381751929,299,0,
1771381751933,295,0,
1771381751938,295,0,
1771381751942,296,0,
1771381751950,292,0,
1771381751954,289,0,
1771381751958,293,0,
1771381751966,291,0,
1771381751970,292,0,
1771381751974,297,0,
1771381751979,300,0,
1771381751987,305,0,
1771381751991,313,0,
1771381751995,320,0,
1771381751999,324,0,
1771381752007,331,0,
1771381752011,337,0,
1771381752015,344,0,
1771381752019,349,0,
1771381752028,355,0,
1771381752032,355,0,
1771381752036,355,0,
1771381752044,359,0,
1771381752048,357,0,
1771381752052,358,0,
1771381752056,360,0,
1771381752065,360,0,
1771381752069,359,0,
1771381752073,361,0,
1771381752077,361,0,
1771381752085,358,0,
1771381752089,360,0,
1771381752093,359,0,
1771381752101,358,0,
1771381752105,359,0,
1771381752110,361,0,
1771381752114,359,0,
1771381752122,356,0,
1771381752126,359,0,
1771381752130,358,0,
1771381752134,356,0,
1771381752142,359,0,
1771381752146,358,0,
1771381752151,357,0,
1771381752155,359,0,
1771381752163,360,0,
1771381752167,358,0,
1771381752171,359,0,
1771381752179,358,0,
1771381752183,357,0,
1771381752187,357,0,
1771381752192,360,0,
1771381752200,357,0,
1771381752204,357,0,
1771381752208,357,0,
1771381752212,356,0,
1771381752220,356,0,
1771381752224,358,0,
1771381752228,355,0,
1771381752237,354,0,
1771381752241,354,0,
1771381752245,353,0,
1771381752249,353,0,
1771381752257,350,0,
1771381752261,345,0,
1771381752265,338,0,
1771381752269,327,0,
1771381752277,327,0,
1771381752282,329,0,
1771381752286,332,0,
1771381752290,338,0,
1771381752298,338,0,
1771381752302,339,0,
1771381752306,344,0,
1771381752314,347,0,
1771381752319,350,0,
1771381752323,354,0,
1771381752327,353,0,
1771381752335,352,0,
1771381752339,351,0,
1771381752343,351,0,
1771381752347,351,0,
1771381752355,350,0,
1771381752359,353,0,
1771381752363,351,0,
1771381752372,349,0,
1771381752376,352,0,
1771381752380,352,0,
1771381752384,351,0,
1771381752392,358,0,
1771381752396,367,0,
1771381752400,365,0,
1771381752404,340,0,
1771381752413,289,0,
1771381752417,203,0,
1771381752421,74,0,
1771381752425,0,0,
1771381752429,0,0,
1771381752429,0,0,
1771381752433,0,0,
1771381752437,47,0,
1771381752441,176,0,
1771381752450,322,0,
1771381752454,373,0,
1771381752458,366,0,
1771381752462,361,0,
1771381752470,367,0,
1771381752474,377,0,
1771381752478,383,0,
1771381752482,384,0,
1771381752490,385,0,
1771381752495,384,0,
1771381752499,383,0,
1771381752507,383,0,
1771381752511,384,0,
1771381752515,381,0,
1771381752519,377,0,
1771381752527,379,0,
1771381752531,376,0,
1771381752535,372,0,
1771381752540,374,0,
1771381752548,372,0,
1771381752552,368,0,
1771381752556,366,0,
1771381752564,362,0,
1771381752568,358,0,
1771381752572,355,0,
1771381752577,352,0,
1771381752585,347,0,
1771381752589,343,0,
1771381752593,340,0,
1771381752597,333,0,
1771381752605,328,0,
1771381752609,326,0,
1771381752613,321,0,
1771381752617,315,0,
1771381752626,314,0,
1771381752630,310,0,
1771381752634,308,0,
1771381752642,307,0,
1771381752646,306,0,
1771381752650,304,0,
1771381752654,304,0,
1771381752663,304,0,
1771381752667,302,0,
1771381752671,304,0,
1771381752675,306,0,
1771381752683,306,0,
1771381752687,310,0,
1771381752691,317,0,
1771381752699,320,0,
1771381752703,325,0,
1771381752708,331,0,
1771381752712,335,0,
1771381752720,338,0,
1771381752724,344,0,
1771381752728,347,0,
1771381752732,349,0,
1771381752740,351,0,
1771381752744,352,0,
1771381752748,352,0,
1771381752753,353,0,
1771381752761,356,0,
1771381752765,354,0,
1771381752769,353,0,
1771381752777,355,0,
1771381752781,355,0,
1771381752785,354,0,
1771381752789,356,0,
1771381752798,356,0,
1771381752802,355,0,
1771381752806,356,0,
1771381752810,356,0,
1771381752818,355,0,
1771381752822,357,0,
1771381752826,356,0,
1771381752834,355,0,
1771381752839,354,0,
1771381752843,356,0,
1771381752847,353,0,
1771381752855,352,0,
1771381752859,354,0,
1771381752863,353,0,
1771381752867,353,0,
1771381752875,354,0,
1771381752880,354,0,
1771381752884,353,0,
1771381752888,353,0,
1771381752896,354,0,
1771381752901,352,0,
1771381752904,354,0,
1771381752912,353,0,
1771381752916,351,0,
1771381752921,350,0,
1771381752925,353,0,
1771381752933,350,0,
1771381752937,347,0,
1771381752941,349,0,
1771381752945,349,0,
1771381752954,346,0,
1771381752957,348,0,
1771381752961,345,0,
1771381752970,338,0,
1771381752974,331,0,
1771381752978,321,0,
1771381752982,319,0,
1771381752990,325,0,
1771381752994,331,0,
1771381752998,332,0,
1771381753002,333,0,
1771381753011,337,0,
1771381753015,338,0,
1771381753019,343,0,
1771381753027,347,0,
1771381753031,348,0,
1771381753035,348,0,
1771381753039,349,0,
1771381753048,347,0,
1771381753052,348,0,
1771381753056,348,0,
1771381753060,348,0,
1771381753068,349,0,
1771381753072,348,0,
1771381753076,351,0,
1771381753080,348,0,
1771381753088,348,0,
1771381753093,351,0,
1771381753097,356,0,
1771381753105,363,0,
1771381753109,360,0,
1771381753113,327,0,
1771381753117,267,0,
1771381753125,164,0,
1771381753129,24,0,
1771381753129,0,0,
1771381753133,0,0,
1771381753138,0,0,
1771381753142,0,0,
1771381753146,55,0,
1771381753150,195,0,
1771381753154,338,0,
1771381753162,376,0,
1771381753166,362,0,
1771381753170,359,0,
1771381753174,371,0,
1771381753183,377,0,
1771381753187,381,0,
1771381753191,385,0,
1771381753195,383,0,
1771381753203,381,0,
1771381753207,382,0,
1771381753211,381,0,
1771381753215,379,0,
1771381753224,379,0,
1771381753228,377,0,
1771381753232,374,0,
1771381753240,373,0,
1771381753244,373,0,
1771381753248,368,0,
1771381753252,364,0,
1771381753260,364,0,
1771381753265,360,0,
1771381753269,357,0,
1771381753273,355,0,
1771381753281,351,0,
1771381753285,347,0,
1771381753289,344,0,
1771381753297,338,0,
1771381753301,331,0,
1771381753306,327,0,
1771381753310,321,0,
1771381753318,318,0,
1771381753322,315,0,
1771381753326,313,0,
1771381753330,307,0,
1771381753338,304,0,
1771381753342,305,0,
1771381753346,303,0,
1771381753351,301,0,
1771381753359,301,0,
1771381753363,300,0,
1771381753367,299,0,
1771381753376,300,0,
1771381753379,300,0,
1771381753383,301,0,
1771381753387,305,0,
1771381753396,307,0,
1771381753400,313,0,
1771381753404,318,0,
1771381753408,325,0,
1771381753416,329,0,
1771381753420,333,0,
1771381753424,339,0,
1771381753432,343,0,
1771381753437,345,0,
1771381753441,348,0,
1771381753445,350,0,
1771381753453,350,0,
1771381753457,352,0,
1771381753461,351,0,
1771381753465,351,0,
1771381753473,352,0,
1771381753478,353,0,
1771381753482,352,0,
1771381753490,351,0,
1771381753494,354,0,
1771381753498,352,0,
1771381753502,352,0,
1771381753510,355,0,
1771381753514,353,0,
1771381753518,353,0,
1771381753523,354,0,
1771381753531,354,0,
1771381753535,353,0,
1771381753539,353,0,
1771381753543,353,0,
1771381753551,352,0,
1771381753555,353,0,
1771381753559,355,0,
1771381753568,352,0,
1771381753572,352,0,
1771381753576,355,0,
1771381753580,352,0,
1771381753588,353,0,
1771381753592,355,0,
1771381753596,352,0,
1771381753600,353,0,
1771381753609,354,0,
1771381753613,353,0,
1771381753617,352,0,
1771381753625,353,0,
1771381753629,351,0,
1771381753633,351,0,
1771381753637,351,0,
1771381753645,352,0,
1771381753650,349,0,
1771381753654,348,0,
1771381753658,348,0,
1771381753666,346,0,
1771381753670,345,0,
1771381753674,349,0,
1771381753678,347,0,
1771381753686,342,0,
1771381753690,338,0,
1771381753695,327,0,
1771381753703,318,0,
1771381753707,318,0,
1771381753711,322,0,
1771381753715,326,0,
1771381753723,331,0,
1771381753727,335,0,
1771381753731,334,0,
1771381753735,336,0,
1771381753744,343,0,
1771381753748,344,0,
1771381753752,345,0,
1771381753760,347,0,
1771381753764,347,0,
1771381753768,346,0,
1771381753772,347,0,
1771381753781,346,0,
1771381753785,346,0,
1771381753789,348,0,
1771381753793,348,0,
1771381753801,347,0,
1771381753805,348,0,
1771381753809,349,0,
1771381753813,348,0,
1771381753822,355,0,
1771381753826,365,0,
1771381753830,355,0,
1771381753838,318,0,
1771381753842,255,0,
1771381753846,145,0,
1771381753850,7,0,
