timestamp_ms,raw_value,leads_off,bpm
1771381808175,283,0,
1771381808175,284,0,
1771381808175,286,0,
1771381808175,288,0,
1771381808175,293,0,
1771381808175,301,0,
1771381808175,306,0,
1771381808175,313,0,
1771381808175,324,0,
1771381808175,330,0,
1771381808175,335,0,
1771381808175,342,0,
1771381808175,348,0,
1771381808175,350,0,
1771381808175,1,0,
1771381808175,317,0,
1771381808175,312,0,
1771381808175,307,0,
1771381808175,306,0,
1771381808175,301,0,
1771381808175,296,0,
1771381808175,294,0,
1771381808175,290,0,
1771381808175,288,0,
1771381808175,288,0,
1771381808175,285,0,
1771381808175,283,0,
1771381808175,284,0,
1771381808175,286,0,
1771381808175,288,0,
1771381808175,293,0,
1771381808175,301,0,
1771381808175,306,0,
1771381808175,313,0,
1771381808175,324,0,
1771381808175,330,0,
1771381808175,335,0,
1771381808175,342,0,
1771381808175,348,0,
1771381808175,350,0,
1771381808175,1,0,
1771381808176,317,0,
1771381808176,312,0,
1771381808176,307,0,
1771381808176,306,0,
1771381808176,301,0,
1771381808176,296,0,
1771381808176,294,0,
1771381808176,290,0,
1771381808176,288,0,
1771381808176,288,0,
1771381808176,285,0,
1771381808176,283,0,
1771381808176,284,0,
1771381808176,286,0,
1771381808176,288,0,
1771381808176,293,0,
1771381808176,301,0,
1771381808176,306,0,
1771381808176,313,0,
1771381808176,324,0,
1771381808176,330,0,
1771381808176,335,0,
1771381808176,342,0,
1771381808176,348,0,
1771381808176,350,0,
1771381809739,353,0,
1771381809743,350,0,
1771381809747,351,0,
1771381809755,350,0,
1771381809759,350,0,
1771381809764,350,0,
1771381809768,350,0,
1771381809776,349,0,
1771381809780,351,0,
1771381809784,350,0,
1771381809788,350,0,
1771381809796,350,0,
1771381809800,352,0,
1771381809804,349,0,
1771381809813,351,0,
1771381809817,350,0,
1771381809821,349,0,
1771381809825,348,0,
1771381809833,347,0,
1771381809837,347,0,
1771381809841,346,0,
1771381809846,347,0,
1771381809854,344,0,
1771381809858,338,0,
1771381809862,331,0,
1771381809870,319,0,
1771381809874,316,0,
1771381809878,321,0,
1771381809882,327,0,
1771381809891,329,0,
1771381809895,331,0,
1771381809899,334,0,
1771381809903,337,0,
1771381809911,342,0,
1771381809915,345,0,
1771381809919,348,0,
1771381809923,346,0,
1771381809932,346,0,
1771381809936,346,0,
1771381809940,345,0,
1771381809948,347,0,
1771381809952,348,0,
1771381809956,346,0,
1771381809960,348,0,
1771381809968,347,0,
1771381809972,347,0,
1771381809976,348,0,
1771381809981,348,0,
1771381809989,356,0,
1771381809993,363,0,
1771381809997,358,0,
1771381810005,329,0,
1771381810009,270,0,
1771381810013,174,0,
1771381810018,45,0,
1771381810022,0,0,
1771381810026,0,0,
1771381810026,0,0,
1771381810030,23,0,
1771381810038,134,0,
1771381810042,295,0,
1771381810046,371,0,
1771381810050,369,0,
1771381810058,357,0,
1771381810063,360,0,
1771381810067,370,0,
1771381810075,376,0,
1771381810079,378,0,
1771381810083,380,0,
1771381810087,381,0,
1771381810095,378,0,
1771381810099,377,0,
1771381810104,377,0,
1771381810108,376,0,
1771381810116,373,0,
1771381810120,371,0,
1771381810124,372,0,
1771381810128,368,0,
1771381810136,366,0,
1771381810140,364,0,
1771381810144,360,0,
1771381810153,359,0,
1771381810157,357,0,
1771381810161,352,0,
1771381810165,349,0,
1771381810173,346,0,
1771381810177,341,0,
1771381810181,337,0,
1771381810185,332,0,
1771381810194,328,0,
1771381810198,321,0,
1771381810202,317,0,
1771381810210,314,0,
1771381810214,309,0,
1771381810218,305,0,
1771381810222,302,0,
1771381810231,298,0,
1771381810235,298,0,
1771381810239,296,0,
1771381810243,293,0,
1771381810251,291,0,
1771381810255,291,0,
1771381810259,289,0,
1771381810267,289,0,
1771381810271,290,0,
1771381810276,293,0,
1771381810280,296,0,
1771381810288,300,0,
1771381810292,308,0,
1771381810296,314,0,
1771381810300,321,0,
1771381810308,327,0,
1771381810312,331,0,
1771381810316,337,0,
1771381810321,341,0,
1771381810329,343,0,
1771381810333,348,0,
1771381810337,350,0,
1771381810345,349,0,
1771381810349,352,0,
1771381810353,352,0,
1771381810357,355,0,
1771381810366,354,0,
1771381810370,354,0,
1771381810374,356,0,
1771381810378,356,0,
1771381810386,356,0,
1771381810390,356,0,
1771381810394,355,0,
1771381810402,357,0,
1771381810407,356,0,
1771381810411,357,0,
1771381810415,357,0,
1771381810423,357,0,
1771381810427,355,0,
1771381810431,355,0,
1771381810435,357,0,
1771381810443,357,0,
1771381810447,355,0,
1771381810452,356,0,
1771381810456,357,0,
1771381810464,355,0,
1771381810468,356,0,
1771381810472,357,0,
1771381810480,356,0,
1771381810484,355,0,
1771381810488,355,0,
1771381810492,355,0,
1771381810501,356,0,
1771381810505,356,0,
1771381810509,354,0,
1771381810513,354,0,
1771381810521,352,0,
1771381810525,354,0,
1771381810529,353,0,
1771381810538,352,0,
1771381810542,353,0,
1771381810546,351,0,
1771381810550,351,0,
1771381810558,351,0,
1771381810562,348,0,
1771381810566,347,0,
1771381810570,348,0,
1771381810579,347,0,
1771381810583,346,0,
1771381810587,344,0,
1771381810591,338,0,
1771381810599,328,0,
1771381810603,317,0,
1771381810607,315,0,
1771381810615,320,0,
1771381810619,328,0,
1771381810624,332,0,
1771381810628,331,0,
1771381810636,334,0,
1771381810640,337,0,
1771381810644,341,0,
1771381810648,344,0,
1771381810656,345,0,
1771381810660,345,0,
1771381810665,346,0,
1771381810673,346,0,
1771381810677,347,0,
1771381810681,346,0,
1771381810685,345,0,
1771381810693,347,0,
1771381810697,345,0,
1771381810702,346,0,
1771381810706,346,0,
1771381810714,345,0,
1771381810718,346,0,
1771381810722,355,0,
1771381810730,363,0,
1771381810734,361,0,
1771381810738,330,0,
1771381810742,271,0,
1771381810751,179,0,
1771381810755,57,0,
1771381810755,0,0,
1771381810759,0,0,
1771381810763,2,0,
1771381810767,52,0,
1771381810771,165,0,
1771381810775,307,0,
1771381810783,373,0,
1771381810787,370,0,
1771381810792,354,0,
1771381810800,354,0,
1771381810804,363,0,
1771381810808,369,0,
1771381810812,373,0,
1771381810820,378,0,
1771381810824,379,0,
1771381810828,375,0,
1771381810832,375,0,
1771381810841,378,0,
1771381810845,373,0,
1771381810849,364,0,
1771381810853,360,0,
1771381810861,355,0,
1771381810865,354,0,
1771381810869,354,0,
1771381810878,352,0,
1771381810882,353,0,
1771381810886,351,0,
1771381810890,351,0,
1771381810898,356,0,
1771381810902,354,0,
1771381810906,343,0,
1771381810910,338,0,
1771381810919,340,0,
1771381810923,339,0,
1771381810927,333,0,
1771381810935,321,0,
1771381810939,304,0,
1771381810943,288,0,
1771381810948,286,0,
1771381810955,289,0,
1771381810959,288,0,
1771381810964,286,0,
1771381810968,282,0,
1771381810976,281,0,
1771381810980,284,0,
1771381810984,285,0,
1771381810988,286,0,
1771381810996,287,0,
1771381811000,287,0,
1771381811004,283,0,
1771381811013,279,0,
1771381811017,282,0,
1771381811021,289,0,
1771381811025,299,0,
1771381811034,307,0,
1771381811038,315,0,
1771381811041,322,0,
1771381811045,328,0,
1771381811054,335,0,
1771381811058,340,0,
1771381811062,341,0,
1771381811070,340,0,
1771381811074,337,0,
1771381811078,337,0,
1771381811082,343,0,
1771381811091,350,0,
1771381811095,347,0,
1771381811099,345,0,
1771381811103,349,0,
1771381811111,351,0,
1771381811115,352,0,
1771381811119,352,0,
1771381811124,350,0,
1771381811131,346,0,
1771381811136,344,0,
1771381811140,347,0,
1771381811148,352,0,
1771381811152,354,0,
1771381811156,352,0,
1771381811160,353,0,
1771381811168,351,0,
1771381811172,346,0,
1771381811177,344,0,
1771381811181,352,0,
1771381811189,359,0,
1771381811193,358,0,
1771381811197,359,0,
1771381811205,361,0,
1771381811209,354,0,
1771381811213,347,0,
1771381811217,347,0,
1771381811226,348,0,
1771381811230,350,0,
1771381811234,349,0,
1771381811238,345,0,
1771381811246,343,0,
1771381811250,344,0,
1771381811254,348,0,
1771381811263,347,0,
1771381811267,348,0,
1771381811271,352,0,
1771381811275,352,0,
1771381811283,353,0,
1771381811287,354,0,
1771381811291,352,0,
1771381811295,352,0,
1771381811303,350,0,
1771381811308,347,0,
1771381811312,350,0,
1771381811316,352,0,
1771381811324,339,0,
1771381811328,329,0,
1771381811332,321,0,
1771381811340,317,0,
1771381811344,314,0,
1771381811349,316,0,
1771381811353,324,0,
1771381811361,325,0,
1771381811365,325,0,
1771381811369,329,0,
1771381811373,334,0,
1771381811381,341,0,
1771381811385,343,0,
1771381811390,344,0,
1771381811398,345,0,
1771381811402,346,0,
1771381811406,345,0,
1771381811410,342,0,
1771381811418,340,0,
1771381811422,340,0,
1771381811426,335,0,
1771381811430,337,0,
1771381811439,340,0,
1771381811443,338,0,
1771381811447,342,0,
1771381811451,347,0,
1771381811459,354,0,
1771381811463,360,0,
1771381811467,355,0,
1771381811475,323,0,
1771381811480,264,0,
1771381811484,167,0,
1771381811488,37,0,
1771381811492,0,0,
1771381811496,0,0,
1771381811496,0,0,
1771381811500,33,0,
1771381811508,145,0,
1771381811512,296,0,
1771381811517,374,0,
1771381811521,375,0,
1771381811529,359,0,
1771381811533,357,0,
1771381811537,360,0,
1771381811545,365,0,
1771381811549,371,0,
1771381811553,376,0,
1771381811557,376,0,
1771381811566,375,0,
1771381811570,376,0,
1771381811574,374,0,
1771381811578,371,0,
1771381811586,373,0,
1771381811590,368,0,
1771381811595,363,0,
1771381811602,363,0,
1771381811607,362,0,
1771381811611,358,0,
1771381811615,358,0,
1771381811623,355,0,
1771381811627,350,0,
1771381811631,347,0,
1771381811635,348,0,
1771381811643,346,0,
1771381811648,342,0,
1771381811652,338,0,
1771381811660,328,0,
1771381811664,322,0,
1771381811668,322,0,
1771381811672,318,0,
1771381811680,314,0,
1771381811684,314,0,
1771381811688,308,0,
1771381811693,299,0,
1771381811701,298,0,
1771381811705,297,0,
1771381811709,295,0,
1771381811713,297,0,
1771381811721,294,0,
1771381811725,290,0,
1771381811729,287,0,
1771381811738,289,0,
1771381811742,285,0,
1771381811746,284,0,
1771381811750,293,0,
1771381811758,301,0,
1771381811762,308,0,
1771381811766,316,0,
1771381811770,320,0,
1771381811779,328,0,
1771381811783,335,0,
1771381811787,340,0,
1771381811795,346,0,
1771381811799,352,0,
1771381811803,354,0,
1771381811807,353,0,
1771381811815,355,0,
1771381811820,358,0,
1771381811824,354,0,
1771381811828,353,0,
1771381811836,360,0,
1771381811840,357,0,
1771381811844,355,0,
1771381811848,356,0,
1771381811856,356,0,
1771381811860,357,0,
1771381811865,361,0,
1771381811873,364,0,
1771381811877,361,0,
1771381811881,358,0,
1771381811885,356,0,
1771381811893,357,0,
1771381811897,359,0,
1771381811901,361,0,
1771381811906,359,0,
1771381811914,357,0,
1771381811918,356,0,
1771381811922,355,0,
1771381811930,357,0,
1771381811934,360,0,
1771381811938,360,0,
1771381811942,359,0,
1771381811951,359,0,
1771381811955,359,0,
1771381811959,358,0,
1771381811963,357,0,
1771381811971,357,0,
1771381811975,357,0,
1771381811979,354,0,
1771381811983,354,0,
1771381811992,354,0,
1771381811996,355,0,
1771381812000,360,0,
1771381812008,359,0,
1771381812012,357,0,
1771381812016,357,0,
1771381812020,355,0,
1771381812028,354,0,
1771381812033,354,0,
1771381812037,354,0,
1771381812041,351,0,
1771381812049,345,0,
1771381812053,333,0,
1771381812057,325,0,
1771381812065,329,0,
1771381812069,339,0,
1771381812073,341,0,
1771381812078,336,0,
1771381812086,337,0,
1771381812090,343,0,
1771381812094,345,0,
1771381812098,348,0,
1771381812106,351,0,
1771381812110,354,0,
1771381812114,357,0,
1771381812123,355,0,
1771381812127,354,0,
1771381812131,355,0,
1771381812135,357,0,
1771381812143,353,0,
1771381812147,351,0,
1771381812151,354,0,
1771381812155,353,0,
1771381812164,352,0,
1771381812168,354,0,
1771381812172,357,0,
1771381812176,369,0,
1771381812184,376,0,
1771381812188,361,0,
1771381812192,313,0,
1771381812200,234,0,
1771381812205,105,0,
1771381812209,0,0,
1771381812209,0,0,
1771381812213,0,0,
1771381812218,0,0,
1771381812221,23,0,
1771381812225,149,0,
1771381812229,313,0,
1771381812237,376,0,
1771381812241,374,0,
1771381812246,367,0,
1771381812250,375,0,
1771381812258,384,0,
1771381812262,387,0,
1771381812266,390,0,
1771381812274,388,0,
1771381812278,387,0,
1771381812282,388,0,
1771381812286,391,0,
1771381812295,388,0,
1771381812299,387,0,
1771381812303,387,0,
1771381812307,386,0,
1771381812315,383,0,
1771381812319,377,0,
1771381812323,376,0,
1771381812331,374,0,
1771381812336,372,0,
1771381812340,369,0,
1771381812344,365,0,
1771381812352,362,0,
1771381812356,358,0,
1771381812360,352,0,
1771381812364,349,0,
1771381812372,346,0,
1771381812377,340,0,
1771381812381,335,0,
1771381812389,330,0,
1771381812393,327,0,
1771381812397,321,0,
1771381812401,317,0,
1771381812410,317,0,
1771381812414,313,0,
1771381812418,309,0,
1771381812422,307,0,
1771381812430,304,0,
1771381812434,304,0,
1771381812438,302,0,
1771381812442,299,0,
1771381812450,300,0,
1771381812454,303,0,
1771381812458,305,0,
1771381812467,309,0,
1771381812471,314,0,
1771381812475,318,0,
1771381812479,320,0,
1771381812487,326,0,
1771381812491,332,0,
1771381812495,334,0,
1771381812499,339,0,
1771381812508,345,0,
1771381812512,349,0,
1771381812516,354,0,
1771381812524,356,0,
1771381812528,354,0,
1771381812532,355,0,
1771381812536,358,0,
1771381812544,361,0,
1771381812549,360,0,
1771381812553,359,0,
1771381812557,357,0,
1771381812565,355,0,
1771381812569,359,0,
1771381812573,363,0,
1771381812577,360,0,
1771381812585,360,0,
1771381812589,360,0,
1771381812594,359,0,
1771381812602,359,0,
1771381812606,359,0,
1771381812610,358,0,
1771381812614,361,0,
1771381812622,360,0,
1771381812626,358,0,
1771381812630,357,0,
1771381812635,359,0,
1771381812643,361,0,
1771381812647,358,0,
1771381812651,358,0,
1771381812659,358,0,
1771381812663,356,0,
1771381812667,358,0,
1771381812671,358,0,
1771381812680,355,0,
1771381812684,354,0,
1771381812688,353,0,
1771381812692,350,0,
1771381812700,353,0,
1771381812704,358,0,
1771381812708,359,0,
1771381812712,353,0,
1771381812721,350,0,
1771381812725,349,0,
1771381812729,348,0,
1771381812737,348,0,
1771381812741,350,0,
1771381812745,350,0,
1771381812749,352,0,
1771381812757,350,0,
1771381812761,344,0,
1771381812766,336,0,
1771381812770,325,0,
1771381812778,316,0,
1771381812782,320,0,
1771381812786,326,0,
1771381812794,334,0,
1771381812798,335,0,
1771381812802,335,0,
1771381812807,338,0,
1771381812815,342,0,
1771381812819,346,0,
1771381812823,348,0,
1771381812827,348,0,
1771381812835,348,0,
1771381812839,347,0,
1771381812843,345,0,
1771381812848,347,0,
1771381812856,346,0,
1771381812860,346,0,
1771381812864,348,0,
1771381812872,348,0,
1771381812876,349,0,
1771381812880,349,0,
1771381812884,349,0,
1771381812893,355,0,
1771381812897,364,0,
1771381812901,366,0,
1771381812905,348,0,
1771381812913,297,0,
1771381812917,213,0,
1771381812921,83,0,
1771381812925,0,0,
1771381812929,0,0,
1771381812929,0,0,
1771381812934,0,0,
1771381812938,21,0,
1771381812942,144,0,
1771381812950,308,0,
1771381812954,373,0,
1771381812958,368,0,
1771381812962,358,0,
1771381812970,364,0,
1771381812975,374,0,
1771381812979,377,0,
1771381812987,379,0,
1771381812991,380,0,
1771381812995,379,0,
1771381812999,378,0,
1771381813008,378,0,
1771381813011,378,0,
1771381813015,376,0,
1771381813020,375,0,
1771381813028,369,0,
1771381813032,366,0,
1771381813036,366,0,
1771381813040,368,0,
1771381813048,363,0,
1771381813052,357,0,
1771381813056,354,0,
1771381813065,352,0,
1771381813069,353,0,
1771381813073,350,0,
1771381813077,344,0,
1771381813085,340,0,
1771381813089,335,0,
1771381813093,328,0,
1771381813097,325,0,
1771381813106,321,0,
1771381813110,317,0,
1771381813114,311,0,
1771381813122,306,0,
1771381813126,304,0,
1771381813130,299,0,
1771381813134,297,0,
1771381813142,296,0,
1771381813146,293,0,
1771381813151,290,0,
1771381813155,291,0,
1771381813163,294,0,
1771381813167,296,0,
1771381813171,294,0,
1771381813175,294,0,
1771381813183,297,0,
1771381813187,303,0,
1771381813192,309,0,
1771381813200,312,0,
1771381813204,317,0,
1771381813208,323,0,
1771381813212,328,0,
1771381813220,335,0,
1771381813224,341,0,
1771381813228,343,0,
1771381813232,345,0,
1771381813241,348,0,
1771381813245,348,0,
1771381813249,349,0,
1771381813257,351,0,
1771381813261,350,0,
1771381813265,351,0,
1771381813269,354,0,
1771381813278,356,0,
1771381813282,354,0,
1771381813286,355,0,
1771381813290,355,0,
1771381813298,354,0,
1771381813302,355,0,
1771381813306,356,0,
1771381813310,353,0,
1771381813319,354,0,
1771381813323,353,0,
1771381813327,350,0,
1771381813335,351,0,
1771381813339,352,0,
1771381813343,351,0,
1771381813347,352,0,
1771381813355,352,0,
1771381813359,352,0,
1771381813364,351,0,
1771381813368,354,0,
1771381813376,356,0,
1771381813380,354,0,
1771381813384,353,0,
1771381813392,352,0,
1771381813396,350,0,
1771381813400,352,0,
1771381813405,352,0,
1771381813413,349,0,
1771381813417,347,0,
1771381813421,348,0,
1771381813425,348,0,
1771381813433,348,0,
1771381813437,349,0,
1771381813441,349,0,
1771381813450,347,0,
1771381813454,346,0,
1771381813458,344,0,
1771381813462,342,0,
1771381813470,344,0,
1771381813474,345,0,
1771381813478,343,0,
1771381813482,344,0,
1771381813491,339,0,
1771381813495,334,0,
1771381813499,327,0,
1771381813503,317,0,
1771381813511,313,0,
1771381813515,319,0,
1771381813519,324,0,
1771381813527,329,0,
1771381813532,329,0,
1771381813536,332,0,
1771381813540,334,0,
1771381813548,337,0,
1771381813552,340,0,
1771381813556,341,0,
1771381813560,340,0,
1771381813568,340,0,
1771381813572,340,0,
1771381813577,343,0,
1771381813585,346,0,
1771381813589,346,0,
1771381813593,343,0,
1771381813597,339,0,
1771381813605,339,0,
1771381813610,344,0,
1771381813614,345,0,
1771381813618,344,0,
1771381813626,353,0,
1771381813630,363,0,
1771381813634,364,0,
1771381813638,334,0,
1771381813646,276,0,
1771381813650,180,0,
1771381813654,47,0,
1771381813658,0,0,
1771381813662,0,0,
1771381813663,0,0,
1771381813667,19,0,
1771381813675,126,0,
1771381813679,283,0,
1771381813683,365,0,
1771381813687,370,0,
1771381813696,354,0,
1771381813699,354,0,
1771381813704,363,0,
1771381813708,366,0,
1771381813716,369,0,
1771381813720,373,0,
1771381813724,375,0,
1771381813732,372,0,
1771381813736,371,0,
1771381813740,370,0,
1771381813744,371,0,
1771381813753,370,0,
1771381813757,368,0,
1771381813761,364,0,
1771381813765,361,0,
1771381813773,358,0,
1771381813777,354,0,
1771381813781,355,0,
1771381813790,356,0,
1771381813794,351,0,
1771381813798,348,0,
1771381813802,346,0,
1771381813810,341,0,
1771381813814,337,0,
1771381813818,332,0,
1771381813822,327,0,
1771381813830,322,0,
1771381813835,318,0,
1771381813839,317,0,
1771381813847,311,0,
1771381813851,306,0,
1771381813855,305,0,
1771381813859,302,0,
1771381813867,296,0,
1771381813871,294,0,
1771381813876,292,0,
1771381813880,294,0,
1771381813888,293,0,
1771381813892,290,0,
1771381813896,288,0,
1771381813900,288,0,
1771381813908,289,0,
1771381813912,291,0,
1771381813916,296,0,
1771381813925,303,0,
1771381813929,304,0,
1771381813933,308,0,
1771381813937,316,0,
1771381813945,321,0,
1771381813949,329,0,
1771381813953,336,0,
1771381813957,341,0,
1771381813966,346,0,
1771381813971,349,0,
1771381813974,349,0,
1771381813982,349,0,
1771381813986,353,0,
1771381813990,353,0,
1771381813995,353,0,
1771381814002,352,0,
1771381814007,354,0,
1771381814011,353,0,
1771381814015,354,0,
1771381814023,356,0,
1771381814027,355,0,
1771381814032,355,0,
1771381814035,356,0,
1771381814043,353,0,
1771381814048,352,0,
1771381814052,355,0,
1771381814060,354,0,
1771381814064,355,0,
1771381814068,355,0,
1771381814072,354,0,
1771381814080,353,0,
1771381814084,353,0,
1771381814088,354,0,
1771381814093,352,0,
1771381814101,353,0,
1771381814106,354,0,
1771381814109,353,0,
1771381814117,353,0,
1771381814121,354,0,
1771381814125,353,0,
1771381814129,355,0,
1771381814138,353,0,
1771381814142,352,0,
1771381814146,351,0,
1771381814150,352,0,
1771381814158,350,0,
1771381814162,351,0,
1771381814166,351,0,
1771381814170,354,0,
1771381814179,350,0,
1771381814183,349,0,
1771381814187,351,0,
1771381814195,348,0,
1771381814199,348,0,
1771381814203,350,0,
1771381814207,349,0,
1771381814215,347,0,
1771381814220,344,0,
1771381814224,337,0,
1771381814228,327,0,
1771381814236,322,0,
1771381814240,324,0,
1771381814244,330,0,
1771381814252,333,0,
1771381814256,337,0,
1771381814260,337,0,
1771381814265,339,0,
1771381814273,344,0,
1771381814277,346,0,
1771381814281,348,0,
1771381814285,350,0,
1771381814293,348,0,
1771381814297,347,0,
1771381814301,348,0,
1771381814306,348,0,
1771381814314,349,0,
1771381814318,351,0,
1771381814322,352,0,
1771381814330,351,0,
1771381814334,352,0,
1771381814338,353,0,
1771381814342,351,0,
1771381814351,358,0,
1771381814355,369,0,
1771381814359,370,0,
1771381814363,347,0,
1771381814371,297,0,
1771381814375,216,0,
1771381814379,97,0,
1771381814383,7,0,
1771381814387,0,0,
1771381814387,0,0,
1771381814392,20,0,
1771381814400,114,0,
1771381814404,267,0,
1771381814408,365,0,
1771381814412,380,0,
1771381814420,368,0,
1771381814424,364,0,
1771381814428,369,0,
1771381814433,379,0,
1771381814441,383,0,
1771381814445,384,0,
1771381814449,385,0,
1771381814457,385,0,
1771381814461,383,0,
1771381814465,383,0,
1771381814469,383,0,
1771381814478,379,0,
1771381814482,378,0,
1771381814486,378,0,
1771381814490,374,0,
1771381814498,370,0,
1771381814502,371,0,
1771381814506,368,0,
1771381814514,366,0,
1771381814518,364,0,
1771381814523,359,0,
1771381814527,356,0,
1771381814535,355,0,
1771381814539,352,0,
1771381814543,346,0,
1771381814547,340,0,
1771381814555,335,0,
1771381814559,331,0,
1771381814564,328,0,
1771381814568,326,0,
1771381814576,317,0,
1771381814580,310,0,
1771381814584,311,0,
1771381814592,307,0,
1771381814596,304,0,
1771381814600,304,0,
1771381814605,301,0,
1771381814613,300,0,
1771381814617,298,0,
1771381814621,297,0,
1771381814625,296,0,
1771381814633,297,0,
1771381814637,298,0,
1771381814641,301,0,
1771381814650,307,0,
1771381814654,314,0,
1771381814658,317,0,
1771381814662,320,0,
1771381814670,329,0,
1771381814674,334,0,
1771381814678,337,0,
1771381814682,342,0,
1771381814691,345,0,
1771381814695,348,0,
1771381814699,351,0,
1771381814703,353,0,
1771381814711,353,0,
1771381814715,354,0,
1771381814719,356,0,
1771381814727,357,0,
1771381814731,356,0,
1771381814736,357,0,
1771381814740,355,0,
1771381814748,355,0,
1771381814752,356,0,
1771381814756,356,0,
1771381814760,356,0,
1771381814768,357,0,
1771381814772,356,0,
1771381814777,355,0,
1771381814785,357,0,
1771381814789,355,0,
1771381814793,355,0,
1771381814797,356,0,
1771381814805,355,0,
1771381814809,354,0,
1771381814813,353,0,
1771381814817,358,0,
1771381814826,356,0,
1771381814830,353,0,
1771381814834,356,0,
1771381814842,356,0,
1771381814846,355,0,
1771381814850,358,0,
1771381814854,357,0,
1771381814863,354,0,
1771381814867,354,0,
1771381814871,354,0,
1771381814875,353,0,
1771381814883,353,0,
1771381814887,353,0,
1771381814891,353,0,
1771381814895,352,0,
1771381814903,355,0,
1771381814908,351,0,
1771381814912,348,0,
1771381814920,352,0,
1771381814924,350,0,
1771381814928,350,0,
1771381814932,349,0,
1771381814940,344,0,
1771381814944,336,0,
1771381814949,326,0,
1771381814953,321,0,
1771381814961,322,0,
1771381814965,327,0,
1771381814969,334,0,
1771381814977,334,0,
1771381814981,334,0,
1771381814985,339,0,
1771381814989,343,0,
1771381814998,346,0,
1771381815002,349,0,
1771381815006,349,0,
1771381815010,348,0,
1771381815018,349,0,
1771381815022,348,0,
1771381815026,347,0,
1771381815031,348,0,
1771381815039,347,0,
1771381815043,348,0,
1771381815047,349,0,
1771381815055,352,0,
1771381815059,349,0,
1771381815063,347,0,
1771381815067,357,0,
1771381815076,365,0,
1771381815080,361,0,
1771381815084,335,0,
1771381815088,279,0,
1771381815096,183,0,
1771381815100,49,0,
1771381815100,0,0,
1771381815104,0,0,
1771381815108,0,0,
1771381815112,0,0,
1771381815117,49,0,
1771381815121,184,0,
1771381815125,328,0,
1771381815133,373,0,
1771381815137,367,0,
1771381815141,361,0,
1771381815145,366,0,
1771381815153,377,0,
1771381815157,380,0,
1771381815162,381,0,
1771381815166,384,0,
1771381815174,383,0,
1771381815178,381,0,
1771381815182,381,0,
1771381815190,380,0,
1771381815194,377,0,
1771381815198,376,0,
1771381815202,375,0,
1771381815211,372,0,
1771381815215,369,0,
1771381815219,369,0,
1771381815223,365,0,
1771381815231,360,0,
1771381815235,360,0,
1771381815239,356,0,
1771381815248,352,0,
1771381815252,351,0,
1771381815256,346,0,
1771381815260,340,0,
1771381815268,338,0,
1771381815272,334,0,
1771381815277,329,0,
1771381815281,323,0,
1771381815288,318,0,
1771381815293,312,0,
1771381815297,309,0,
1771381815301,307,0,
1771381815309,304,0,
1771381815313,301,0,
1771381815317,301,0,
1771381815325,298,0,
1771381815329,295,0,
1771381815334,297,0,
1771381815338,297,0,
1771381815346,294,0,
1771381815350,296,0,
1771381815354,298,0,
1771381815358,299,0,
1771381815366,304,0,
1771381815370,309,0,
1771381815375,313,0,
1771381815383,319,0,
1771381815387,327,0,
1771381815391,331,0,
1771381815395,335,0,
1771381815403,343,0,
1771381815407,345,0,
1771381815411,346,0,
1771381815415,349,0,
1771381815424,350,0,
1771381815428,351,0,
1771381815432,352,0,
1771381815440,352,0,
1771381815444,353,0,
1771381815448,354,0,
1771381815452,353,0,
1771381815461,353,0,
1771381815465,352,0,
1771381815469,355,0,
1771381815473,354,0,
1771381815481,354,0,
1771381815485,356,0,
1771381815489,354,0,
1771381815493,352,0,
1771381815501,352,0,
1771381815506,353,0,
1771381815510,353,0,
1771381815518,353,0,
1771381815522,353,0,
1771381815526,352,0,
1771381815530,354,0,
1771381815538,355,0,
1771381815542,353,0,
1771381815547,352,0,
1771381815551,355,0,
1771381815559,355,0,
1771381815563,353,0,
1771381815567,353,0,
1771381815575,352,0,
1771381815579,351,0,
1771381815583,352,0,
1771381815588,351,0,
1771381815596,350,0,
1771381815600,350,0,
1771381815604,351,0,
1771381815608,349,0,
1771381815616,349,0,
1771381815620,351,0,
1771381815624,348,0,
1771381815628,344,0,
1771381815637,347,0,
1771381815641,346,0,
1771381815645,345,0,
1771381815653,345,0,
1771381815657,340,0,
1771381815661,333,0,
1771381815665,324,0,
1771381815673,317,0,
1771381815678,316,0,
1771381815682,323,0,
1771381815686,329,0,
1771381815694,331,0,
1771381815698,332,0,
1771381815702,337,0,
1771381815710,339,0,
1771381815714,340,0,
1771381815719,345,0,
1771381815723,345,0,
1771381815731,344,0,
1771381815735,345,0,
1771381815739,344,0,
1771381815743,343,0,
1771381815751,344,0,
1771381815755,345,0,
1771381815759,345,0,
1771381815764,345,0,
1771381815772,346,0,
1771381815776,344,0,
1771381815780,344,0,
1771381815788,351,0,
1771381815792,359,0,
1771381815796,362,0,
1771381815800,348,0,
1771381815809,302,0,
1771381815813,227,0,
1771381815817,115,0,
1771381815821,3,0,
1771381815825,0,0,
1771381815825,0,0,
1771381815829,20,0,
1771381815837,114,0,
1771381815841,265,0,
1771381815845,358,0,
1771381815854,370,0,
1771381815858,354,0,
1771381815862,350,0,
1771381815866,359,0,
1771381815874,367,0,
1771381815878,369,0,
1771381815882,370,0,
1771381815886,370,0,
1771381815895,370,0,
1771381815899,371,0,
1771381815903,371,0,
1771381815911,368,0,
1771381815915,366,0,
1771381815919,364,0,
1771381815923,362,0,
1771381815932,361,0,
1771381815936,361,0,
1771381815940,357,0,
1771381815944,354,0,
1771381815952,351,0,
1771381815956,351,0,
1771381815961,346,0,
1771381815964,342,0,
1771381815972,341,0,
1771381815977,336,0,
1771381815981,330,0,
1771381815989,327,0,
1771381815993,320,0,
1771381815997,316,0,
1771381816001,313,0,
1771381816009,307,0,
1771381816013,303,0,
1771381816017,300,0,
1771381816022,297,0,
1771381816030,292,0,
1771381816034,291,0,
1771381816038,292,0,
1771381816046,289,0,
1771381816050,288,0,
1771381816054,289,0,
1771381816058,287,0,
1771381816067,287,0,
1771381816071,289,0,
1771381816075,291,0,
1771381816079,295,0,
1771381816087,301,0,
1771381816091,306,0,
1771381816095,310,0,
1771381816104,317,0,
1771381816108,325,0,
1771381816112,329,0,
1771381816116,334,0,
1771381816124,341,0,
1771381816128,343,0,
1771381816132,346,0,
1771381816136,348,0,
1771381816144,347,0,
1771381816149,349,0,
1771381816153,350,0,
1771381816157,350,0,
1771381816165,350,0,
1771381816169,352,0,
1771381816173,350,0,
1771381816181,350,0,
1771381816185,351,0,
1771381816190,353,0,
1771381816194,352,0,
1771381816202,351,0,
1771381816206,353,0,
1771381816210,351,0,
1771381816214,351,0,
1771381816222,353,0,
1771381816226,351,0,
1771381816230,351,0,
1771381816239,352,0,
1771381816243,352,0,
1771381816247,351,0,
1771381816251,352,0,
1771381816259,352,0,
1771381816263,351,0,
1771381816267,353,0,
1771381816271,353,0,
1771381816280,350,0,
1771381816284,350,0,
1771381816288,354,0,
1771381816293,353,0,
1771381816300,352,0,
1771381816304,352,0,
1771381816308,350,0,
1771381816316,351,0,
1771381816321,352,0,
1771381816325,351,0,
1771381816329,349,0,
1771381816337,351,0,
1771381816341,349,0,
1771381816345,348,0,
1771381816349,348,0,
1771381816357,348,0,
1771381816362,346,0,
1771381816366,346,0,
1771381816374,346,0,
1771381816378,342,0,
1771381816382,336,0,
1771381816386,331,0,
1771381816394,322,0,
1771381816398,322,0,
1771381816403,327,0,
1771381816407,329,0,
1771381816415,331,0,
1771381816419,334,0,
1771381816423,335,0,
1771381816427,338,0,
1771381816435,342,0,
1771381816440,345,0,
1771381816444,344,0,
1771381816452,343,0,
1771381816456,344,0,
1771381816460,342,0,
1771381816464,344,0,
1771381816472,344,0,
1771381816476,343,0,
1771381816480,345,0,
1771381816485,345,0,
1771381816493,345,0,
1771381816497,343,0,
1771381816501,345,0,
1771381816509,344,0,
1771381816513,351,0,
1771381816517,355,0,
1771381816521,347,0,
1771381816529,306,0,
1771381816534,242,0,
1771381816538,151,0,
1771381816542,44,0,
1771381816546,0,0,
1771381816550,6,0,
1771381816554,48,0,
1771381816558,136,0,
1771381816562,270,0,
1771381816570,362,0,
1771381816575,376,0,
1771381816579,359,0,
1771381816583,352,0,
1771381816591,355,0,
1771381816595,362,0,
1771381816599,369,0,
1771381816603,369,0,
1771381816611,366,0,
1771381816616,368,0,
1771381816620,369,0,
1771381816624,367,0,
1771381816632,367,0,
1771381816636,368,0,
1771381816640,365,0,
1771381816648,362,0,
1771381816652,361,0,
1771381816656,356,0,
1771381816661,353,0,
1771381816669,352,0,
1771381816673,350,0,
1771381816677,345,0,
1771381816681,346,0,
1771381816689,343,0,
1771381816693,340,0,
1771381816698,337,0,
1771381816706,333,0,
1771381816710,327,0,
1771381816714,324,0,
1771381816718,321,0,
1771381816726,314,0,
1771381816730,308,0,
1771381816734,304,0,
1771381816738,301,0,
1771381816747,297,0,
1771381816751,298,0,
1771381816755,297,0,
1771381816759,294,0,
1771381816767,297,0,
1771381816771,295,0,
1771381816775,292,0,
1771381816783,295,0,
1771381816788,294,0,
1771381816792,292,0,
1771381816796,293,0,
1771381816804,300,0,
1771381816808,304,0,
1771381816812,305,0,
1771381816816,311,0,
1771381816824,318,0,
1771381816828,325,0,
1771381816833,333,0,
1771381816841,336,0,
1771381816845,338,0,
1771381816849,343,0,
1771381816853,346,0,
1771381816861,347,0,
1771381816865,349,0,
1771381816869,350,0,
1771381816874,349,0,
1771381816882,350,0,
1771381816886,351,0,
1771381816890,350,0,
1771381816898,350,0,
1771381816902,349,0,
1771381816907,348,0,
1771381816910,348,0,
1771381816919,352,0,
1771381816923,351,0,
1771381816927,349,0,
1771381816931,349,0,
1771381816939,350,0,
1771381816943,348,0,
1771381816947,348,0,
1771381816951,348,0,
1771381816959,346,0,
1771381816964,348,0,
1771381816968,352,0,
1771381816976,353,0,
1771381816980,352,0,
1771381816984,351,0,
1771381816988,350,0,
1771381816996,350,0,
1771381817000,351,0,
1771381817005,351,0,
1771381817009,348,0,
1771381817017,351,0,
1771381817021,353,0,
1771381817025,352,0,
1771381817033,351,0,
1771381817037,350,0,
1771381817041,347,0,
1771381817045,349,0,
1771381817054,351,0,
1771381817058,348,0,
1771381817062,346,0,
1771381817066,347,0,
1771381817074,347,0,
1771381817078,345,0,
1771381817082,347,0,
1771381817086,340,0,
1771381817095,331,0,
1771381817099,327,0,
1771381817103,329,0,
1771381817111,329,0,
1771381817115,334,0,
1771381817119,335,0,
1771381817123,335,0,
1771381817132,335,0,
1771381817136,340,0,
1771381817140,344,0,
1771381817144,345,0,
1771381817152,346,0,
1771381817156,344,0,
1771381817160,342,0,
1771381817168,345,0,
1771381817172,345,0,
1771381817177,344,0,
1771381817181,345,0,
1771381817189,344,0,
1771381817193,341,0,
1771381817197,343,0,
1771381817201,344,0,
1771381817209,343,0,
1771381817213,345,0,
1771381817217,349,0,
1771381817222,344,0,
1771381817230,318,0,
1771381817234,270,0,
1771381817238,205,0,
1771381817246,116,0,
1771381817250,40,0,
1771381817254,25,0,
1771381817258,68,0,
1771381817263,150,0,
1771381817267,270,0,
1771381817271,350,0,
1771381817279,365,0,
1771381817283,355,0,
1771381817287,351,0,
1771381817295,358,0,
1771381817299,365,0,
1771381817304,370,0,
1771381817308,367,0,
1771381817316,368,0,
1771381817320,369,0,
1771381817324,366,0,
1771381817328,367,0,
1771381817336,367,0,
1771381817340,364,0,
1771381817345,363,0,
1771381817349,363,0,
1771381817357,362,0,
1771381817361,359,0,
1771381817365,357,0,
1771381817373,354,0,
1771381817377,350,0,
1771381817381,349,0,
1771381817385,349,0,
1771381817394,346,0,
1771381817398,343,0,
1771381817402,340,0,
1771381817406,333,0,
1771381817414,331,0,
1771381817418,328,0,
1771381817422,323,0,
1771381817431,322,0,
1771381817435,318,0,
1771381817439,315,0,
1771381817443,312,0,
1771381817451,311,0,
1771381817455,310,0,
1771381817459,310,0,
1771381817463,310,0,
1771381817472,311,0,
1771381817476,306,0,
1771381817480,308,0,
1771381817484,310,0,
1771381817492,308,0,
1771381817496,309,0,
1771381817500,312,0,
1771381817508,315,0,
1771381817512,319,0,
1771381817517,322,0,
1771381817521,326,0,
1771381817529,330,0,
1771381817533,335,0,
1771381817537,339,0,
1771381817541,340,0,
1771381817549,342,0,
1771381817553,345,0,
1771381817557,346,0,
1771381817566,347,0,
1771381817570,349,0,
1771381817574,350,0,
1771381817578,351,0,
1771381817586,350,0,
1771381817590,347,0,
1771381817594,346,0,
1771381817598,347,0,
1771381817607,348,0,
1771381817611,346,0,
1771381817615,347,0,
1771381817619,348,0,
1771381817627,347,0,
1771381817631,347,0,
1771381817635,347,0,
1771381817643,347,0,
1771381817648,350,0,
1771381817652,349,0,
1771381817656,346,0,
1771381817664,344,0,
1771381817668,346,0,
1771381817672,350,0,
1771381817676,351,0,
1771381817684,351,0,
1771381817689,350,0,
1771381817693,348,0,
1771381817701,348,0,
1771381817705,347,0,
1771381817709,347,0,
1771381817713,346,0,
1771381817721,350,0,
1771381817725,349,0,
1771381817729,347,0,
1771381817734,349,0,
1771381817742,348,0,
1771381817746,348,0,
1771381817750,349,0,
1771381817754,345,0,
1771381817762,345,0,
1771381817766,348,0,
1771381817770,346,0,
1771381817779,344,0,
1771381817783,340,0,
1771381817787,336,0,
1771381817791,331,0,
1771381817799,326,0,
1771381817803,328,0,
1771381817807,331,0,
1771381817811,336,0,
1771381817820,335,0,
1771381817824,335,0,
1771381817828,335,0,
1771381817836,341,0,
1771381817840,346,0,
1771381817844,346,0,
1771381817848,344,0,
1771381817856,344,0,
1771381817861,344,0,
1771381817865,345,0,
1771381817869,347,0,
1771381817877,348,0,
1771381817881,346,0,
1771381817885,347,0,
1771381817893,347,0,
1771381817897,348,0,
1771381817901,345,0,
1771381817906,341,0,
1771381817914,345,0,
1771381817918,342,0,
1771381817922,326,0,
1771381817926,295,0,
1771381817934,256,0,
1771381817938,202,0,
1771381817943,137,0,
1771381817947,106,0,
1771381817955,143,0,
1771381817959,213,0,
1771381817963,298,0,
1771381817971,352,0,
1771381817975,358,0,
1771381817979,351,0,
1771381817983,350,0,
1771381817992,353,0,
1771381817996,358,0,
1771381818000,361,0,
1771381818004,362,0,
1771381818012,361,0,
1771381818016,361,0,
1771381818020,361,0,
1771381818028,358,0,
1771381818033,358,0,
1771381818037,359,0,
1771381818041,359,0,
1771381818049,360,0,
1771381818053,357,0,
1771381818057,356,0,
1771381818061,354,0,
1771381818069,352,0,
1771381818074,351,0,
1771381818078,350,0,
1771381818082,348,0,
1771381818090,346,0,
1771381818094,342,0,
1771381818098,339,0,
1771381818106,337,0,
1771381818110,334,0,
1771381818114,332,0,
1771381818119,332,0,
1771381818127,327,0,
1771381818131,325,0,
1771381818135,322,0,
1771381818139,319,0,
1771381818147,319,0,
1771381818151,319,0,
1771381818156,315,0,
1771381818164,313,0,
1771381818168,312,0,
1771381818172,313,0,
1771381818176,311,0,
1771381818184,312,0,
1771381818188,313,0,
1771381818192,311,0,
1771381818196,314,0,
1771381818205,318,0,
1771381818209,321,0,
1771381818213,326,0,
1771381818217,328,0,
1771381818225,330,0,
1771381818229,335,0,
1771381818233,340,0,
1771381818241,343,0,
1771381818246,346,0,
1771381818250,348,0,
1771381818254,348,0,
1771381818262,347,0,
1771381818266,350,0,
1771381818270,350,0,
1771381818274,350,0,
1771381818282,349,0,
1771381818286,350,0,
1771381818291,350,0,
1771381818299,350,0,
1771381818303,350,0,
1771381818307,348,0,
1771381818311,349,0,
1771381818319,348,0,
1771381818323,348,0,
1771381818327,349,0,
1771381818332,348,0,
1771381818340,349,0,
1771381818344,349,0,
1771381818348,350,0,
1771381818352,352,0,
1771381818360,350,0,
1771381818364,350,0,
1771381818368,352,0,
1771381818377,352,0,
1771381818381,354,0,
1771381818385,355,0,
1771381818389,353,0,
1771381818397,353,0,
1771381818401,353,0,
1771381818405,352,0,
1771381818409,351,0,
1771381818418,352,0,
1771381818422,352,0,
1771381818426,350,0,
1771381818434,350,0,
1771381818438,353,0,
1771381818442,351,0,
1771381818446,348,0,
1771381818454,351,0,
1771381818458,349,0,
1771381818463,351,0,
1771381818467,349,0,
1771381818475,346,0,
1771381818479,347,0,
1771381818483,347,0,
1771381818491,348,0,
1771381818495,346,0,
1771381818499,342,0,
1771381818503,335,0,
1771381818512,327,0,
1771381818516,326,0,
1771381818520,332,0,
1771381818524,336,0,
1771381818532,335,0,
1771381818536,338,0,
1771381818540,340,0,
1771381818544,344,0,
1771381818553,347,0,
1771381818557,348,0,
1771381818561,350,0,
1771381818569,352,0,
1771381818573,351,0,
1771381818577,350,0,
1771381818581,349,0,
1771381818590,351,0,
1771381818594,350,0,
1771381818598,349,0,
1771381818602,350,0,
1771381818610,350,0,
1771381818615,350,0,
1771381818618,349,0,
1771381818626,347,0,
1771381818631,349,0,
1771381818635,343,0,
1771381818639,319,0,
1771381818647,278,0,
1771381818651,230,0,
1771381818655,169,0,
1771381818659,123,0,
1771381818667,144,0,
1771381818671,216,0,
1771381818676,301,0,
1771381818680,363,0,
1771381818688,373,0,
1771381818692,358,0,
1771381818696,352,0,
1771381818704,355,0,
1771381818708,359,0,
1771381818712,363,0,
1771381818717,364,0,
1771381818725,365,0,
1771381818729,365,0,
1771381818733,365,0,
1771381818737,366,0,
1771381818745,364,0,
1771381818749,363,0,
1771381818753,361,0,
1771381818762,359,0,
1771381818766,357,0,
1771381818770,358,0,
1771381818774,356,0,
1771381818782,356,0,
1771381818786,354,0,
1771381818790,349,0,
1771381818794,347,0,
1771381818803,346,0,
1771381818807,343,0,
1771381818811,341,0,
1771381818815,339,0,
1771381818823,336,0,
1771381818827,329,0,
1771381818831,325,0,
1771381818839,321,0,
1771381818843,317,0,
1771381818848,312,0,
1771381818852,310,0,
1771381818860,306,0,
1771381818864,302,0,
1771381818868,299,0,
1771381818872,294,0,
1771381818880,292,0,
1771381818884,291,0,
1771381818889,288,0,
1771381818897,286,0,
1771381818901,287,0,
1771381818905,287,0,
1771381818909,288,0,
1771381818917,293,0,
1771381818921,301,0,
1771381818925,305,0,
1771381818929,308,0,
1771381818938,317,0,
1771381818942,323,0,
1771381818946,331,0,
1771381818954,336,0,
1771381818958,340,0,
1771381818962,345,0,
1771381818966,348,0,
1771381818975,349,0,
1771381818979,352,0,
1771381818983,354,0,
1771381818987,356,0,
1771381818995,355,0,
1771381818999,355,0,
1771381819003,356,0,
1771381819007,356,0,
1771381819016,356,0,
1771381819020,358,0,
1771381819024,355,0,
1771381819032,356,0,
1771381819036,357,0,
1771381819040,356,0,
1771381819044,357,0,
1771381819052,356,0,
1771381819057,356,0,
1771381819061,354,0,
1771381819065,355,0,
1771381819073,357,0,
1771381819077,355,0,
1771381819081,354,0,
1771381819089,355,0,
1771381819093,353,0,
1771381819097,352,0,
1771381819101,356,0,
1771381819110,355,0,
1771381819114,356,0,
1771381819118,354,0,
1771381819122,354,0,
1771381819130,353,0,
1771381819134,353,0,
1771381819138,353,0,
1771381819142,353,0,
1771381819151,353,0,
1771381819155,354,0,
1771381819159,353,0,
1771381819167,352,0,
1771381819171,352,0,
1771381819175,351,0,
1771381819179,351,0,
1771381819188,351,0,
1771381819192,348,0,
1771381819196,349,0,
1771381819200,348,0,
1771381819208,348,0,
1771381819212,348,0,
1771381819216,347,0,
1771381819224,346,0,
1771381819228,345,0,
1771381819233,344,0,
1771381819237,341,0,
1771381819245,335,0,
1771381819249,328,0,
1771381819253,323,0,
1771381819257,323,0,
1771381819265,328,0,
1771381819269,330,0,
1771381819273,330,0,
1771381819278,333,0,
1771381819286,337,0,
1771381819290,339,0,
1771381819294,341,0,
1771381819302,343,0,
1771381819306,346,0,
1771381819310,345,0,
1771381819315,346,0,
1771381819323,347,0,
1771381819327,346,0,
1771381819331,345,0,
1771381819335,345,0,
1771381819343,345,0,
1771381819347,346,0,
1771381819351,346,0,
1771381819360,344,0,
1771381819364,346,0,
1771381819368,348,0,
1771381819372,350,0,
1771381819380,345,0,
1771381819384,321,0,
1771381819388,277,0,
1771381819392,210,0,
1771381819400,120,0,
1771381819405,56,0,
1771381819409,61,0,
1771381819413,116,0,
1771381819417,222,0,
1771381819425,330,0,
1771381819429,376,0,
1771381819433,370,0,
1771381819437,355,0,
1771381819446,352,0,
1771381819450,361,0,
1771381819454,365,0,
1771381819458,367,0,
1771381819466,368,0,
1771381819470,369,0,
1771381819474,368,0,
1771381819478,367,0,
1771381819487,366,0,
1771381819491,366,0,
1771381819495,364,0,
1771381819503,362,0,
1771381819507,362,0,
1771381819511,359,0,
1771381819515,362,0,
1771381819523,359,0,
1771381819527,353,0,
1771381819532,352,0,
1771381819536,350,0,
1771381819544,347,0,
1771381819548,344,0,
1771381819552,343,0,
1771381819560,338,0,
1771381819565,334,0,
1771381819569,331,0,
1771381819573,327,0,
1771381819581,321,0,
1771381819585,317,0,
1771381819589,315,0,
1771381819593,309,0,
1771381819601,308,0,
1771381819605,303,0,
1771381819609,297,0,
1771381819618,297,0,
1771381819622,296,0,
1771381819626,293,0,
1771381819630,291,0,
1771381819638,290,0,
1771381819642,288,0,
1771381819646,288,0,
1771381819650,289,0,
1771381819658,291,0,
1771381819663,292,0,
1771381819667,298,0,
1771381819671,304,0,
1771381819679,308,0,
1771381819683,317,0,
1771381819687,323,0,
1771381819695,327,0,
1771381819699,335,0,
1771381819704,339,0,
1771381819708,341,0,
1771381819716,345,0,
1771381819720,349,0,
1771381819724,350,0,
1771381819728,350,0,
1771381819736,351,0,
1771381819740,352,0,
1771381819745,351,0,
1771381819753,351,0,
1771381819757,346,0,
1771381819761,343,0,
1771381819765,349,0,
1771381819773,350,0,
1771381819777,347,0,
1771381819781,347,0,
1771381819785,352,0,
1771381819794,358,0,
1771381819798,362,0,
1771381819802,359,0,
1771381819806,355,0,
1771381819814,356,0,
1771381819818,357,0,
1771381819822,353,0,
1771381819831,349,0,
1771381819835,347,0,
1771381819839,345,0,
1771381819843,352,0,
1771381819851,362,0,
1771381819855,361,0,
1771381819859,355,0,
1771381819863,351,0,
1771381819872,349,0,
1771381819876,352,0,
1771381819880,357,0,
1771381819888,360,0,
1771381819892,358,0,
1771381819896,357,0,
1771381819900,359,0,
1771381819908,361,0,
1771381819912,358,0,
1771381819917,358,0,
1771381819921,355,0,
1771381819929,347,0,
1771381819933,345,0,
1771381819937,346,0,
1771381819941,350,0,
1771381819949,353,0,
1771381819953,351,0,
1771381819958,347,0,
1771381819966,344,0,
1771381819970,341,0,
1771381819974,334,0,
1771381819978,325,0,
1771381819986,326,0,
1771381819990,328,0,
1771381819994,329,0,
1771381819998,334,0,
1771381820007,335,0,
1771381820011,336,0,
1771381820015,342,0,
1771381820023,348,0,
1771381820027,345,0,
1771381820031,345,0,
1771381820035,349,0,
1771381820044,349,0,
1771381820048,349,0,
1771381820052,348,0,
1771381820057,346,0,
1771381820064,344,0,
1771381820068,344,0,
1771381820072,343,0,
1771381820080,340,0,
1771381820084,343,0,
1771381820089,343,0,
1771381820093,346,0,
1771381820101,356,0,
1771381820105,357,0,
1771381820109,339,0,
1771381820113,295,0,
1771381820121,232,0,
1771381820125,135,0,
1771381820130,30,0,
1771381820134,0,0,
1771381820138,11,0,
1771381820142,74,0,
1771381820146,175,0,
1771381820150,304,0,
1771381820158,364,0,
1771381820162,360,0,
1771381820166,355,0,
1771381820170,358,0,
1771381820179,365,0,
1771381820183,371,0,
1771381820187,373,0,
1771381820191,371,0,
1771381820199,371,0,
1771381820203,373,0,
1771381820207,373,0,
1771381820216,369,0,
1771381820220,369,0,
1771381820224,370,0,
1771381820228,367,0,
1771381820236,364,0,
1771381820240,357,0,
1771381820244,351,0,
1771381820248,360,0,
1771381820256,363,0,
1771381820261,358,0,
1771381820265,353,0,
1771381820269,352,0,
1771381820277,348,0,
1771381820281,343,0,
1771381820285,335,0,
1771381820293,327,0,
1771381820297,327,0,
1771381820302,329,0,
1771381820306,322,0,
1771381820314,316,0,
1771381820318,318,0,
1771381820322,314,0,
1771381820326,303,0,
1771381820334,301,0,
1771381820338,302,0,
1771381820342,298,0,
1771381820351,298,0,
1771381820355,299,0,
1771381820359,298,0,
1771381820363,296,0,
1771381820371,293,0,
1771381820375,292,0,
1771381820379,293,0,
1771381820383,297,0,
1771381820392,301,0,
1771381820396,304,0,
1771381820400,310,0,
1771381820404,314,0,
1771381820412,316,0,
1771381820416,323,0,
1771381820420,328,0,
1771381820428,331,0,
1771381820433,336,0,
1771381820437,339,0,
1771381820441,342,0,
1771381820449,346,0,
1771381820453,348,0,
1771381820457,347,0,
1771381820461,347,0,
1771381820469,350,0,
1771381820473,353,0,
1771381820478,354,0,
1771381820486,356,0,
1771381820490,353,0,
1771381820494,350,0,
1771381820498,354,0,
1771381820506,353,0,
1771381820510,351,0,
1771381820515,353,0,
1771381820519,353,0,
1771381820527,353,0,
1771381820531,351,0,
1771381820535,353,0,
1771381820539,351,0,
1771381820547,349,0,
1771381820551,350,0,
1771381820555,350,0,
1771381820564,350,0,
1771381820568,353,0,
1771381820572,351,0,
1771381820576,349,0,
1771381820584,351,0,
1771381820588,352,0,
1771381820592,349,0,
1771381820596,349,0,
1771381820605,349,0,
1771381820609,348,0,
1771381820613,348,0,
1771381820621,349,0,
1771381820625,348,0,
1771381820629,348,0,
1771381820633,348,0,
1771381820641,349,0,
1771381820646,350,0,
1771381820650,350,0,
1771381820654,346,0,
1771381820662,343,0,
1771381820666,347,0,
1771381820670,348,0,
1771381820678,345,0,
1771381820682,340,0,
1771381820686,335,0,
1771381820691,328,0,
1771381820699,320,0,
1771381820703,324,0,
1771381820707,328,0,
1771381820711,332,0,
1771381820719,332,0,
1771381820723,335,0,
1771381820727,337,0,
1771381820732,343,0,
1771381820740,346,0,
1771381820744,346,0,
1771381820748,350,0,
1771381820756,351,0,
1771381820760,348,0,
1771381820764,349,0,
1771381820768,349,0,
1771381820777,350,0,
1771381820781,350,0,
1771381820785,351,0,
1771381820789,352,0,
1771381820797,352,0,
1771381820801,351,0,
1771381820805,351,0,
1771381820813,351,0,
1771381820818,362,0,
1771381820822,364,0,
1771381820826,345,0,
1771381820834,305,0,
1771381820838,241,0,
1771381820842,140,0,
1771381820846,30,0,
1771381820850,0,0,
1771381820854,13,0,
1771381820859,82,0,
1771381820863,187,0,
1771381820867,319,0,
1771381820875,377,0,
1771381820879,370,0,
1771381820883,364,0,
1771381820891,366,0,
1771381820895,373,0,
1771381820899,380,0,
1771381820904,381,0,
1771381820912,379,0,
1771381820916,381,0,
1771381820920,381,0,
1771381820924,380,0,
1771381820932,378,0,
1771381820936,378,0,
1771381820940,375,0,
1771381820949,373,0,
1771381820953,373,0,
1771381820957,371,0,
1771381820961,367,0,
1771381820969,367,0,
1771381820973,362,0,
1771381820977,358,0,
1771381820981,358,0,
1771381820990,355,0,
1771381820994,351,0,
1771381820998,347,0,
1771381821002,343,0,
1771381821010,338,0,
1771381821014,334,0,
1771381821018,330,0,
1771381821026,326,0,
1771381821031,321,0,
1771381821035,316,0,
1771381821039,313,0,
1771381821047,307,0,
1771381821051,305,0,
1771381821055,300,0,
1771381821059,294,0,
1771381821067,295,0,
1771381821072,294,0,
1771381821076,291,0,
1771381821084,290,0,
1771381821088,290,0,
1771381821092,290,0,
1771381821096,290,0,
1771381821104,292,0,
1771381821108,296,0,
1771381821112,300,0,
1771381821117,307,0,
1771381821125,313,0,
1771381821129,318,0,
1771381821133,325,0,
1771381821137,329,0,
1771381821145,332,0,
1771381821149,338,0,
1771381821153,342,0,
1771381821162,345,0,
1771381821166,348,0,
1771381821170,348,0,
1771381821174,349,0,
1771381821182,349,0,
1771381821186,352,0,
1771381821190,352,0,
1771381821194,353,0,
1771381821203,355,0,
1771381821207,356,0,
1771381821211,353,0,
1771381821219,355,0,
1771381821223,354,0,
1771381821227,351,0,
1771381821231,353,0,
1771381821239,353,0,
1771381821244,352,0,
1771381821248,352,0,
1771381821252,353,0,
1771381821260,354,0,
1771381821264,353,0,
1771381821268,354,0,
1771381821276,354,0,
1771381821280,353,0,
1771381821284,353,0,
1771381821289,353,0,
1771381821297,351,0,
1771381821301,352,0,
1771381821305,352,0,
1771381821309,351,0,
1771381821317,352,0,
1771381821321,353,0,
1771381821325,353,0,
1771381821330,354,0,
1771381821338,352,0,
1771381821342,351,0,
1771381821346,350,0,
1771381821354,352,0,
1771381821358,350,0,
1771381821362,349,0,
1771381821366,347,0,
1771381821375,346,0,
1771381821379,345,0,
1771381821383,347,0,
1771381821387,347,0,
1771381821395,342,0,
1771381821399,337,0,
1771381821403,331,0,
1771381821411,321,0,
1771381821416,318,0,
1771381821420,322,0,
1771381821424,326,0,
1771381821432,329,0,
1771381821436,332,0,
1771381821440,332,0,
1771381821444,336,0,
1771381821452,341,0,
1771381821456,343,0,
1771381821461,343,0,
1771381821465,345,0,
1771381821473,345,0,
1771381821477,343,0,
1771381821481,344,0,
1771381821489,345,0,
1771381821493,344,0,
1771381821497,345,0,
1771381821502,345,0,
1771381821510,345,0,
1771381821514,345,0,
1771381821518,345,0,
1771381821522,347,0,
1771381821530,352,0,
1771381821534,358,0,
1771381821538,349,0,
1771381821547,314,0,
1771381821551,260,0,
1771381821555,170,0,
1771381821559,53,0,
1771381821563,0,0,
1771381821567,0,0,
1771381821571,10,0,
1771381821575,85,0,
1771381821579,199,0,
1771381821583,326,0,
1771381821588,368,0,
1771381821596,357,0,
1771381821600,354,0,
1771381821604,361,0,
1771381821612,367,0,
1771381821617,372,0,
1771381821620,377,0,
1771381821624,374,0,
1771381821633,373,0,
1771381821637,375,0,
1771381821641,375,0,
1771381821645,373,0,
1771381821653,373,0,
1771381821657,371,0,
1771381821661,369,0,
1771381821665,367,0,
1771381821674,365,0,
1771381821678,363,0,
1771381821682,362,0,
1771381821690,360,0,
1771381821694,357,0,
1771381821698,353,0,
1771381821702,353,0,
1771381821710,347,0,
1771381821714,342,0,
1771381821719,341,0,
1771381821723,335,0,
1771381821731,330,0,
1771381821735,327,0,
1771381821739,323,0,
1771381821747,317,0,
1771381821751,313,0,
1771381821755,310,0,
1771381821760,306,0,
1771381821768,303,0,
1771381821772,300,0,
1771381821776,297,0,
1771381821780,295,0,
1771381821788,295,0,
1771381821792,293,0,
1771381821796,289,0,
1771381821805,291,0,
1771381821809,290,0,
1771381821813,290,0,
1771381821817,294,0,
1771381821825,299,0,
1771381821829,302,0,
1771381821833,309,0,
1771381821837,313,0,
1771381821846,318,0,
1771381821850,325,0,
1771381821854,331,0,
1771381821858,336,0,
1771381821866,338,0,
1771381821870,345,0,
1771381821874,347,0,
1771381821882,347,0,
1771381821887,352,0,
1771381821891,352,0,
1771381821895,351,0,
1771381821903,353,0,
1771381821907,354,0,
1771381821911,355,0,
1771381821915,355,0,
1771381821923,356,0,
1771381821927,355,0,
1771381821932,355,0,
1771381821940,357,0,
1771381821944,354,0,
1771381821948,353,0,
1771381821952,356,0,
1771381821960,355,0,
1771381821964,355,0,
1771381821968,356,0,
1771381821973,355,0,
1771381821981,352,0,
1771381821985,353,0,
1771381821989,353,0,
1771381821993,352,0,
1771381822001,354,0,
1771381822005,355,0,
1771381822009,353,0,
1771381822018,353,0,
1771381822022,356,0,
1771381822026,353,0,
1771381822030,351,0,
1771381822038,354,0,
1771381822042,352,0,
1771381822046,351,0,
1771381822050,352,0,
1771381822059,352,0,
1771381822063,351,0,
1771381822067,351,0,
1771381822075,350,0,
1771381822079,347,0,
1771381822083,347,0,
1771381822087,347,0,
1771381822095,345,0,
1771381822099,345,0,
1771381822104,344,0,
1771381822108,336,0,
1771381822116,326,0,
1771381822120,322,0,
1771381822124,322,0,
1771381822128,325,0,
1771381822137,331,0,
1771381822140,332,0,
1771381822145,332,0,
1771381822153,338,0,
1771381822157,343,0,
1771381822161,345,0,
1771381822165,346,0,
1771381822173,349,0,
1771381822177,348,0,
1771381822181,348,0,
1771381822185,350,0,
1771381822194,346,0,
1771381822198,345,0,
1771381822202,349,0,
1771381822210,348,0,
1771381822214,346,0,
1771381822218,347,0,
1771381822223,346,0,
1771381822231,346,0,
1771381822235,351,0,
1771381822239,358,0,
1771381822244,354,0,
1771381822251,329,0,
1771381822255,280,0,
1771381822260,204,0,
1771381822263,92,0,
1771381822268,11,0,
1771381822272,0,0,
1771381822276,10,0,
1771381822280,79,0,
1771381822284,192,0,
1771381822292,322,0,
1771381822296,370,0,
1771381822300,362,0,
1771381822304,354,0,
1771381822312,361,0,
1771381822317,370,0,
1771381822321,375,0,
1771381822325,376,0,
1771381822333,376,0,
1771381822337,376,0,
1771381822341,375,0,
1771381822349,376,0,
1771381822353,375,0,
1771381822357,373,0,
1771381822362,371,0,
1771381822370,369,0,
1771381822374,367,0,
1771381822378,366,0,
1771381822382,364,0,
1771381822390,363,0,
1771381822394,359,0,
1771381822398,357,0,
1771381822407,356,0,
1771381822411,351,0,
1771381822415,346,0,
1771381822419,344,0,
1771381822427,340,0,
1771381822431,338,0,
1771381822436,334,0,
1771381822439,328,0,
1771381822448,324,0,
1771381822452,320,0,
1771381822456,313,0,
1771381822460,308,0,
1771381822469,306,0,
1771381822473,304,0,
1771381822477,299,0,
1771381822485,296,0,
1771381822489,296,0,
1771381822493,292,0,
1771381822497,290,0,
1771381822505,290,0,
1771381822509,288,0,
1771381822513,289,0,
1771381822517,289,0,
1771381822525,292,0,
1771381822530,297,0,
1771381822534,301,0,
1771381822542,307,0,
1771381822546,312,0,
1771381822550,318,0,
1771381822554,325,0,
1771381822562,330,0,
1771381822566,335,0,
1771381822570,341,0,
1771381822575,344,0,
1771381822583,346,0,
1771381822587,348,0,
1771381822591,349,0,
1771381822595,352,0,
1771381822603,352,0,
1771381822607,352,0,
1771381822611,354,0,
1771381822620,354,0,
1771381822624,355,0,
1771381822628,355,0,
1771381822632,356,0,
1771381822640,357,0,
1771381822644,356,0,
1771381822648,356,0,
1771381822652,356,0,
1771381822661,354,0,
1771381822665,353,0,
1771381822669,355,0,
1771381822678,354,0,
1771381822681,355,0,
1771381822685,354,0,
1771381822689,355,0,
1771381822697,356,0,
1771381822702,355,0,
1771381822706,354,0,
1771381822710,353,0,
1771381822718,354,0,
1771381822722,356,0,
1771381822726,354,0,
1771381822734,353,0,
1771381822738,353,0,
1771381822742,352,0,
1771381822747,352,0,
1771381822755,354,0,
1771381822759,352,0,
1771381822763,352,0,
1771381822767,351,0,
1771381822775,351,0,
1771381822779,352,0,
1771381822783,351,0,
1771381822787,348,0,
1771381822796,348,0,
1771381822800,349,0,
1771381822804,348,0,
1771381822812,342,0,
1771381822816,338,0,
1771381822820,332,0,
1771381822824,323,0,
1771381822833,324,0,
1771381822837,328,0,
1771381822841,330,0,
1771381822845,333,0,
1771381822853,335,0,
1771381822857,338,0,
1771381822861,341,0,
1771381822869,345,0,
1771381822874,347,0,
1771381822878,348,0,
1771381822882,348,0,
1771381822890,349,0,
1771381822894,348,0,
1771381822898,347,0,
1771381822902,349,0,
1771381822911,349,0,
1771381822915,351,0,
1771381822919,349,0,
1771381822923,347,0,
1771381822931,349,0,
1771381822935,348,0,
1771381822939,351,0,
1771381822947,357,0,
1771381822951,357,0,
1771381822955,334,0,
1771381822960,286,0,
1771381822968,219,0,
1771381822972,114,0,
1771381822976,17,0,
1771381822980,1,0,
1771381822984,35,0,
1771381822988,115,0,
1771381822992,252,0,
1771381823001,354,0,
1771381823005,377,0,
1771381823009,360,0,
1771381823013,355,0,
1771381823021,364,0,
1771381823025,371,0,
1771381823029,375,0,
1771381823033,376,0,
1771381823041,375,0,
1771381823046,374,0,
1771381823050,374,0,
1771381823054,374,0,
1771381823062,372,0,
1771381823066,370,0,
1771381823070,369,0,
1771381823078,367,0,
1771381823082,364,0,
1771381823086,365,0,
1771381823091,362,0,
1771381823099,358,0,
1771381823103,357,0,
1771381823107,355,0,
1771381823111,351,0,
1771381823119,348,0,
1771381823123,345,0,
1771381823127,341,0,
1771381823136,338,0,
1771381823140,335,0,
1771381823144,330,0,
1771381823148,326,0,
1771381823156,321,0,
1771381823160,316,0,
1771381823164,311,0,
1771381823169,310,0,
1771381823177,304,0,
1771381823181,297,0,
1771381823185,297,0,
1771381823189,294,0,
1771381823197,291,0,
1771381823201,291,0,
1771381823205,288,0,
1771381823214,285,0,
1771381823218,284,0,
1771381823222,285,0,
1771381823226,287,0,
1771381823234,290,0,
1771381823238,297,0,
1771381823242,302,0,
1771381823246,306,0,
1771381823254,315,0,
1771381823259,320,0,
1771381823263,324,0,
1771381823271,333,0,
1771381823275,339,0,
1771381823279,341,0,
1771381823283,344,0,
1771381823291,347,0,
1771381823295,349,0,
1771381823300,350,0,
1771381823304,353,0,
1771381823312,352,0,
1771381823316,354,0,
1771381823320,356,0,
1771381823324,353,0,
1771381823333,353,0,
1771381823337,357,0,
1771381823341,355,0,
1771381823349,353,0,
1771381823353,355,0,
1771381823357,355,0,
1771381823361,353,0,
1771381823369,354,0,
1771381823373,354,0,
1771381823377,351,0,
1771381823382,353,0,
1771381823390,354,0,
1771381823394,353,0,
1771381823398,353,0,
1771381823406,356,0,
1771381823410,354,0,
1771381823414,353,0,
1771381823418,354,0,
1771381823427,353,0,
1771381823431,350,0,
1771381823435,352,0,
1771381823439,352,0,
1771381823447,353,0,
1771381823451,353,0,
1771381823455,352,0,
1771381823463,350,0,
1771381823467,351,0,
1771381823472,351,0,
1771381823476,350,0,
1771381823484,349,0,
1771381823488,352,0,
1771381823492,348,0,
1771381823496,345,0,
1771381823504,348,0,
1771381823508,346,0,
1771381823513,343,0,
1771381823517,340,0,
1771381823525,335,0,
1771381823529,328,0,
1771381823533,322,0,
1771381823541,324,0,
1771381823545,327,0,
1771381823549,329,0,
1771381823553,332,0,
1771381823562,333,0,
1771381823566,336,0,
1771381823570,343,0,
1771381823574,345,0,
1771381823582,345,0,
1771381823586,349,0,
1771381823591,346,0,
1771381823599,345,0,
1771381823603,347,0,
1771381823607,347,0,
1771381823611,345,0,
1771381823619,346,0,
1771381823623,347,0,
1771381823627,347,0,
1771381823631,347,0,
1771381823639,346,0,
1771381823644,346,0,
1771381823648,348,0,
1771381823652,356,0,
1771381823660,349,0,
1771381823664,320,0,
1771381823668,272,0,
1771381823676,202,0,
1771381823680,111,0,
1771381823685,44,0,
1771381823689,52,0,
1771381823693,115,0,
1771381823697,229,0,
1771381823705,342,0,
1771381823709,384,0,
1771381823713,369,0,
1771381823717,352,0,
1771381823725,352,0,
1771381823730,359,0,
1771381823734,364,0,
1771381823742,368,0,
1771381823746,367,0,
1771381823750,366,0,
1771381823754,368,0,
1771381823762,366,0,
1771381823766,365,0,
1771381823771,365,0,
1771381823775,362,0,
1771381823783,360,0,
1771381823787,361,0,
1771381823791,358,0,
1771381823799,354,0,
1771381823803,354,0,
1771381823807,354,0,
1771381823811,350,0,
1771381823820,348,0,
1771381823824,346,0,
1771381823828,341,0,
1771381823832,337,0,
1771381823840,336,0,
1771381823844,331,0,
1771381823848,327,0,
1771381823852,322,0,
1771381823861,317,0,
1771381823865,313,0,
1771381823869,309,0,
1771381823877,304,0,
1771381823881,300,0,
1771381823885,298,0,
1771381823889,297,0,
1771381823897,291,0,
1771381823902,287,0,
1771381823906,285,0,
1771381823910,282,0,
1771381823918,281,0,
1771381823922,283,0,
1771381823926,281,0,
1771381823934,280,0,
1771381823938,285,0,
1771381823942,289,0,
1771381823947,296,0,
1771381823955,303,0,
1771381823959,310,0,
1771381823963,316,0,
1771381823967,324,0,
1771381823975,332,0,
1771381823979,335,0,
1771381823983,340,0,
1771381823988,348,0,
1771381823996,349,0,
1771381824000,350,0,
1771381824004,354,0,
1771381824012,353,0,
1771381824016,354,0,
1771381824020,357,0,
1771381824024,357,0,
1771381824033,356,0,
1771381824037,357,0,
1771381824041,356,0,
1771381824045,356,0,
1771381824053,357,0,
1771381824057,358,0,
1771381824061,356,0,
1771381824069,356,0,
1771381824074,357,0,
1771381824078,355,0,
1771381824082,355,0,
1771381824090,357,0,
1771381824094,357,0,
1771381824098,357,0,
1771381824102,357,0,
1771381824110,355,0,
1771381824115,353,0,
1771381824119,356,0,
1771381824127,356,0,
1771381824131,356,0,
1771381824136,356,0,
1771381824139,358,0,
1771381824147,356,0,
1771381824151,355,0,
1771381824156,356,0,
1771381824160,355,0,
1771381824168,355,0,
1771381824172,356,0,
1771381824176,356,0,
1771381824180,356,0,
1771381824188,356,0,
1771381824192,353,0,
1771381824196,350,0,
1771381824205,352,0,
1771381824209,350,0,
1771381824213,348,0,
1771381824217,345,0,
1771381824225,342,0,
1771381824230,335,0,
1771381824233,327,0,
1771381824237,328,0,
1771381824246,332,0,
1771381824251,334,0,
1771381824254,337,0,
1771381824262,338,0,
1771381824266,340,0,
1771381824270,346,0,
1771381824274,350,0,
1771381824282,351,0,
1771381824287,352,0,
1771381824291,353,0,
1771381824295,350,0,
1771381824303,350,0,
1771381824307,353,0,
1771381824311,352,0,
1771381824315,351,0,
1771381824323,352,0,
1771381824327,351,0,
1771381824332,350,0,
1771381824340,351,0,
1771381824344,350,0,
1771381824348,351,0,
1771381824352,358,0,
1771381824360,356,0,
1771381824364,335,0,
1771381824368,293,0,
1771381824373,232,0,
1771381824381,140,0,
1771381824385,50,0,
1771381824389,27,0,
1771381824393,67,0,
1771381824397,144,0,
1771381824401,272,0,
1771381824410,362,0,
1771381824414,373,0,
1771381824418,359,0,
1771381824422,357,0,
1771381824430,362,0,
1771381824434,369,0,
1771381824438,374,0,
1771381824442,374,0,
1771381824450,374,0,
1771381824454,374,0,
1771381824459,374,0,
1771381824467,372,0,
1771381824471,374,0,
1771381824475,372,0,
1771381824479,368,0,
1771381824487,369,0,
1771381824491,367,0,
1771381824495,364,0,
1771381824500,363,0,
1771381824508,361,0,
1771381824512,358,0,
1771381824516,356,0,
1771381824524,353,0,
1771381824528,349,0,
1771381824532,345,0,
1771381824536,344,0,
1771381824545,339,0,
1771381824549,334,0,
1771381824553,333,0,
1771381824557,327,0,
1771381824565,321,0,
1771381824569,320,0,
1771381824573,314,0,
1771381824577,310,0,
1771381824586,307,0,
1771381824590,304,0,
1771381824594,300,0,
1771381824602,298,0,
1771381824606,298,0,
1771381824610,295,0,
1771381824614,293,0,
1771381824622,296,0,
1771381824627,292,0,
1771381824631,290,0,
1771381824635,294,0,
1771381824643,297,0,
1771381824647,300,0,
1771381824651,306,0,
1771381824659,312,0,
1771381824663,317,0,
1771381824667,324,0,
1771381824672,330,0,
1771381824680,334,0,
1771381824684,339,0,
1771381824688,344,0,
1771381824692,346,0,
1771381824700,349,0,
1771381824704,353,0,
1771381824709,352,0,
1771381824713,351,0,
1771381824721,355,0,
1771381824725,354,0,
1771381824729,354,0,
1771381824737,357,0,
1771381824741,358,0,
1771381824745,358,0,
1771381824749,357,0,
1771381824758,357,0,
1771381824762,357,0,
1771381824766,356,0,
1771381824770,357,0,
1771381824778,357,0,
1771381824782,357,0,
1771381824786,359,0,
1771381824794,356,0,
1771381824799,354,0,
1771381824803,357,0,
1771381824807,355,0,
1771381824815,354,0,
1771381824819,355,0,
1771381824823,355,0,
1771381824827,354,0,
1771381824836,356,0,
1771381824840,355,0,
1771381824844,353,0,
1771381824848,353,0,
1771381824856,354,0,
1771381824860,353,0,
1771381824864,352,0,
1771381824873,355,0,
1771381824877,352,0,
1771381824881,350,0,
1771381824885,353,0,
1771381824893,351,0,
1771381824897,348,0,
1771381824901,349,0,
1771381824905,349,0,
1771381824913,348,0,
1771381824917,350,0,
1771381824921,347,0,
1771381824929,340,0,
1771381824934,333,0,
1771381824938,324,0,
1771381824942,323,0,
1771381824950,327,0,
1771381824954,334,0,
1771381824958,333,0,
1771381824962,332,0,
1771381824971,337,0,
1771381824975,341,0,
1771381824979,344,0,
1771381824983,347,0,
1771381824991,349,0,
1771381824995,349,0,
1771381824999,349,0,
1771381825008,350,0,
1771381825012,349,0,
1771381825016,347,0,
1771381825020,347,0,
1771381825028,347,0,
1771381825032,347,0,
1771381825036,350,0,
1771381825040,348,0,
1771381825048,347,0,
1771381825052,350,0,
1771381825057,355,0,
1771381825065,354,0,
1771381825069,338,0,
1771381825073,297,0,
1771381825077,237,0,
1771381825085,143,0,
1771381825090,41,0,
1771381825090,6,0,
1771381825093,22,0,
1771381825098,88,0,
1771381825106,188,0,
1771381825110,312,0,
1771381825114,366,0,
1771381825122,364,0,
1771381825126,356,0,
1771381825130,359,0,
1771381825134,368,0,
1771381825143,372,0,
1771381825147,374,0,
1771381825151,375,0,
1771381825155,376,0,
1771381825163,375,0,
1771381825167,375,0,
1771381825171,377,0,
1771381825175,374,0,
1771381825184,371,0,
1771381825188,372,0,
1771381825192,369,0,
1771381825200,366,0,
1771381825204,367,0,
1771381825208,364,0,
1771381825212,360,0,
1771381825220,361,0,
1771381825224,357,0,
1771381825229,353,0,
1771381825233,351,0,
1771381825241,347,0,
1771381825245,343,0,
1771381825249,339,0,
1771381825257,335,0,
1771381825261,330,0,
1771381825265,326,0,
1771381825270,325,0,
1771381825278,319,0,
1771381825282,313,0,
1771381825286,313,0,
1771381825290,309,0,
1771381825298,303,0,
1771381825302,303,0,
1771381825306,301,0,
1771381825310,298,0,
1771381825319,297,0,
1771381825323,297,0,
1771381825327,295,0,
1771381825335,295,0,
1771381825339,296,0,
1771381825343,297,0,
1771381825347,301,0,
1771381825356,307,0,
1771381825360,310,0,
1771381825364,313,0,
1771381825368,321,0,
1771381825376,326,0,
1771381825380,330,0,
1771381825384,337,0,
1771381825392,341,0,
1771381825397,344,0,
1771381825401,347,0,
1771381825405,349,0,
1771381825413,350,0,
1771381825417,351,0,
1771381825421,352,0,
1771381825425,353,0,
1771381825433,354,0,
1771381825437,356,0,
1771381825442,354,0,
1771381825446,353,0,
1771381825454,356,0,
1771381825458,355,0,
1771381825462,354,0,
1771381825470,356,0,
1771381825474,356,0,
1771381825479,354,0,
1771381825482,355,0,
1771381825491,355,0,
1771381825495,353,0,
1771381825499,354,0,
1771381825503,353,0,
1771381825511,352,0,
1771381825515,353,0,
1771381825519,356,0,
1771381825527,354,0,
1771381825532,352,0,
1771381825536,353,0,
1771381825540,352,0,
1771381825548,351,0,
1771381825552,353,0,
1771381825556,352,0,
1771381825560,351,0,
1771381825568,351,0,
1771381825573,352,0,
1771381825577,350,0,
1771381825585,351,0,
1771381825590,352,0,
1771381825593,351,0,
1771381825597,349,0,
1771381825605,351,0,
1771381825609,347,0,
1771381825613,345,0,
1771381825618,347,0,
1771381825626,345,0,
1771381825630,343,0,
1771381825634,339,0,
1771381825638,334,0,
1771381825646,327,0,
1771381825651,322,0,
1771381825655,324,0,
1771381825663,326,0,
1771381825667,330,0,
1771381825671,332,0,
1771381825675,332,0,
1771381825683,334,0,
1771381825687,340,0,
1771381825691,342,0,
1771381825696,343,0,
1771381825704,346,0,
1771381825708,345,0,
1771381825712,344,0,
1771381825720,345,0,
1771381825724,345,0,
1771381825728,344,0,
1771381825732,346,0,
1771381825741,346,0,
1771381825745,345,0,
1771381825749,345,0,
1771381825753,348,0,
1771381825761,344,0,
1771381825765,346,0,
1771381825769,355,0,
1771381825774,349,0,
1771381825782,322,0,
1771381825786,277,0,
1771381825790,206,0,
1771381825794,99,0,
1771381825798,23,0,
1771381825802,0,0,
1771381825806,24,0,
1771381825810,98,0,
1771381825814,201,0,
1771381825822,324,0,
1771381825826,368,0,
1771381825831,357,0,
1771381825835,353,0,
1771381825843,357,0,
1771381825847,366,0,
1771381825851,370,0,
1771381825859,371,0,
1771381825863,373,0,
1771381825867,373,0,
1771381825872,372,0,
1771381825880,371,0,
1771381825884,370,0,
1771381825888,370,0,
1771381825892,368,0,
1771381825900,366,0,
1771381825904,364,0,
1771381825908,363,0,
1771381825917,362,0,
1771381825921,361,0,
1771381825925,357,0,
1771381825929,354,0,
1771381825937,352,0,
1771381825941,348,0,
1771381825945,345,0,
1771381825949,343,0,
1771381825958,338,0,
1771381825962,334,0,
1771381825966,330,0,
1771381825970,328,0,
1771381825978,323,0,
1771381825982,319,0,
1771381825986,314,0,
1771381825995,311,0,
1771381825999,308,0,
1771381826003,304,0,
1771381826007,301,0,
1771381826015,299,0,
1771381826019,297,0,
1771381826023,293,0,
1771381826027,291,0,
1771381826035,289,0,
1771381826039,290,0,
1771381826043,289,0,
1771381826052,290,0,
1771381826056,293,0,
1771381826060,296,0,
1771381826064,300,0,
1771381826072,307,0,
1771381826076,313,0,
1771381826081,318,0,
1771381826085,323,0,
1771381826093,328,0,
1771381826097,335,0,
1771381826101,340,0,
1771381826105,343,0,
1771381826113,345,0,
1771381826117,347,0,
1771381826121,349,0,
1771381826130,350,0,
1771381826134,351,0,
1771381826138,352,0,
1771381826142,352,0,
1771381826150,353,0,
1771381826154,355,0,
1771381826158,353,0,
1771381826162,355,0,
1771381826170,354,0,
1771381826175,352,0,
1771381826179,352,0,
1771381826187,353,0,
1771381826191,353,0,
1771381826195,352,0,
1771381826199,352,0,
1771381826207,354,0,
1771381826211,353,0,
1771381826216,352,0,
1771381826220,352,0,
1771381826228,352,0,
1771381826232,350,0,
1771381826236,352,0,
1771381826240,352,0,
1771381826248,354,0,
1771381826252,351,0,
1771381826256,349,0,
1771381826265,350,0,
1771381826269,352,0,
1771381826273,352,0,
1771381826277,352,0,
1771381826285,352,0,
1771381826289,352,0,
1771381826293,350,0,
1771381826297,350,0,
1771381826306,352,0,
1771381826310,351,0,
1771381826314,348,0,
1771381826322,351,0,
1771381826326,348,0,
1771381826330,347,0,
1771381826334,347,0,
1771381826343,344,0,
1771381826347,346,0,
1771381826351,344,0,
1771381826355,337,0,
1771381826363,331,0,
1771381826367,322,0,
1771381826371,322,0,
1771381826375,325,0,
1771381826384,328,0,
1771381826388,332,0,
1771381826392,333,0,
1771381826400,334,0,
1771381826404,339,0,
1771381826408,344,0,
1771381826412,346,0,
1771381826420,347,0,
1771381826424,345,0,
1771381826429,346,0,
1771381826433,346,0,
1771381826441,346,0,
1771381826445,345,0,
1771381826449,346,0,
1771381826457,347,0,
1771381826461,347,0,
1771381826465,347,0,
1771381826470,348,0,
1771381826478,347,0,
1771381826482,347,0,
1771381826486,354,0,
1771381826490,352,0,
1771381826498,333,0,
1771381826502,289,0,
1771381826506,223,0,
1771381826515,126,0,
1771381826519,29,0,
1771381826519,3,0,
1771381826523,29,0,
1771381826532,101,0,
1771381826535,233,0,
1771381826539,345,0,
1771381826543,373,0,
1771381826551,361,0,
1771381826556,356,0,
1771381826560,360,0,
1771381826564,367,0,
1771381826572,375,0,
1771381826576,373,0,
1771381826580,372,0,
1771381826588,375,0,
1771381826592,375,0,
1771381826597,372,0,
1771381826601,373,0,
1771381826609,372,0,
1771381826613,369,0,
1771381826617,367,0,
1771381826621,367,0,
1771381826629,364,0,
1771381826633,363,0,
1771381826637,361,0,
1771381826642,358,0,
1771381826650,355,0,
1771381826654,356,0,
1771381826658,351,0,
1771381826666,346,0,
1771381826670,346,0,
1771381826674,341,0,
1771381826678,335,0,
1771381826687,331,0,
1771381826691,327,0,
1771381826695,323,0,
1771381826699,321,0,
1771381826707,317,0,
1771381826711,311,0,
1771381826715,308,0,
1771381826723,305,0,
1771381826728,302,0,
1771381826732,299,0,
1771381826736,298,0,
1771381826744,293,0,
1771381826748,291,0,
1771381826752,291,0,
1771381826756,290,0,
1771381826765,288,0,
1771381826769,290,0,
1771381826773,293,0,
1771381826781,297,0,
1771381826785,303,0,
1771381826789,310,0,
1771381826793,314,0,
1771381826802,321,0,
1771381826805,326,0,
1771381826809,333,0,
1771381826814,337,0,
1771381826822,344,0,
1771381826826,347,0,
1771381826830,348,0,
1771381826834,352,0,
1771381826842,353,0,
1771381826846,354,0,
1771381826851,356,0,
1771381826859,356,0,
1771381826863,356,0,
1771381826867,358,0,
1771381826871,358,0,
1771381826879,358,0,
1771381826883,358,0,
1771381826887,360,0,
1771381826891,357,0,
1771381826900,356,0,
1771381826904,359,0,
1771381826908,358,0,
1771381826916,355,0,
1771381826920,357,0,
1771381826924,357,0,
1771381826928,356,0,
1771381826936,356,0,
1771381826940,356,0,
1771381826945,355,0,
1771381826949,355,0,
1771381826957,356,0,
1771381826961,356,0,
1771381826965,357,0,
1771381826969,358,0,
1771381826977,355,0,
1771381826981,353,0,
1771381826986,357,0,
1771381826994,355,0,
1771381826998,351,0,
1771381827002,354,0,
1771381827006,353,0,
1771381827014,352,0,
1771381827018,352,0,
1771381827022,353,0,
1771381827027,352,0,
1771381827035,352,0,
1771381827039,350,0,
1771381827043,349,0,
1771381827052,348,0,
1771381827055,350,0,
1771381827059,347,0,
1771381827063,345,0,
1771381827072,348,0,
1771381827076,344,0,
1771381827080,337,0,
1771381827084,332,0,
1771381827092,323,0,
1771381827096,321,0,
1771381827100,327,0,
1771381827104,330,0,
1771381827112,331,0,
1771381827117,332,0,
1771381827121,334,0,
1771381827129,338,0,
1771381827133,342,0,
1771381827137,347,0,
1771381827141,346,0,
1771381827149,344,0,
1771381827153,347,0,
1771381827158,345,0,
1771381827162,343,0,
1771381827170,347,0,
1771381827174,347,0,
1771381827178,346,0,
1771381827186,347,0,
1771381827190,348,0,
1771381827194,346,0,
1771381827199,348,0,
1771381827207,349,0,
1771381827211,354,0,
1771381827215,353,0,
1771381827219,341,0,
1771381827227,298,0,
1771381827231,235,0,
1771381827235,145,0,
1771381827239,43,0,
1771381827244,3,0,
1771381827248,18,0,
1771381827252,85,0,
1771381827256,188,0,
1771381827264,315,0,
1771381827268,372,0,
1771381827272,367,0,
1771381827276,354,0,
1771381827285,357,0,
1771381827289,366,0,
1771381827293,370,0,
1771381827297,373,0,
1771381827305,376,0,
1771381827309,376,0,
1771381827313,372,0,
1771381827321,375,0,
1771381827325,374,0,
1771381827330,370,0,
1771381827334,369,0,
1771381827342,370,0,
1771381827346,367,0,
1771381827350,365,0,
1771381827354,363,0,
1771381827362,360,0,
1771381827366,359,0,
1771381827371,356,0,
1771381827379,354,0,
1771381827383,350,0,
1771381827387,348,0,
1771381827391,343,0,
1771381827399,339,0,
1771381827403,338,0,
1771381827407,333,0,
1771381827411,329,0,
1771381827420,327,0,
1771381827424,323,0,
1771381827428,317,0,
1771381827432,313,0,
1771381827440,310,0,
1771381827444,305,0,
1771381827449,301,0,
1771381827457,297,0,
1771381827461,295,0,
1771381827465,292,0,
1771381827469,292,0,
1771381827477,288,0,
1771381827481,285,0,
1771381827485,287,0,
1771381827489,287,0,
1771381827497,288,0,
1771381827502,294,0,
1771381827506,299,0,
1771381827514,304,0,
1771381827518,310,0,
1771381827522,317,0,
1771381827526,323,0,
1771381827534,329,0,
1771381827538,335,0,
1771381827543,339,0,
1771381827547,342,0,
1771381827555,347,0,
1771381827559,348,0,
1771381827563,349,0,
1771381827567,353,0,
1771381827575,354,0,
1771381827579,353,0,
1771381827583,354,0,
1771381827592,355,0,
1771381827596,355,0,
1771381827600,355,0,
1771381827604,356,0,
1771381827612,356,0,
1771381827616,355,0,
1771381827620,358,0,
1771381827624,355,0,
1771381827633,354,0,
1771381827637,355,0,
1771381827641,354,0,
1771381827649,353,0,
1771381827653,356,0,
1771381827657,355,0,
1771381827661,353,0,
1771381827669,353,0,
1771381827674,354,0,
1771381827678,353,0,
1771381827682,353,0,
1771381827690,354,0,
1771381827694,353,0,
1771381827698,354,0,
1771381827706,356,0,
1771381827710,353,0,
1771381827715,349,0,
1771381827719,353,0,
1771381827727,352,0,
1771381827731,351,0,
1771381827735,352,0,
1771381827739,351,0,
1771381827747,350,0,
1771381827751,351,0,
1771381827755,350,0,
1771381827760,349,0,
1771381827768,349,0,
1771381827772,351,0,
1771381827776,349,0,
1771381827784,347,0,
1771381827788,348,0,
1771381827792,345,0,
1771381827797,343,0,
1771381827805,344,0,
1771381827809,338,0,
1771381827813,332,0,
1771381827817,325,0,
1771381827825,321,0,
1771381827829,322,0,
1771381827834,327,0,
1771381827842,330,0,
1771381827846,329,0,
1771381827850,331,0,
1771381827854,335,0,
1771381827862,340,0,
1771381827866,343,0,
1771381827870,347,0,
1771381827874,344,0,
1771381827882,343,0,
1771381827887,346,0,
1771381827891,345,0,
1771381827895,344,0,
1771381827903,346,0,
1771381827907,346,0,
1771381827911,345,0,
1771381827920,346,0,
1771381827923,347,0,
1771381827927,345,0,
1771381827932,345,0,
1771381827940,350,0,
1771381827944,353,0,
1771381827948,344,0,
1771381827952,311,0,
1771381827960,255,0,
1771381827964,170,0,
1771381827968,66,0,
1771381827973,8,0,
1771381827977,4,0,
1771381827981,37,0,
1771381827985,121,0,
1771381827989,256,0,
1771381827993,355,0,
1771381828001,372,0,
1771381828005,359,0,
1771381828010,355,0,
1771381828014,360,0,
1771381828022,368,0,
1771381828026,371,0,
1771381828030,374,0,
1771381828034,372,0,
1771381828042,371,0,
1771381828046,371,0,
1771381828050,370,0,
1771381828059,369,0,
1771381828063,369,0,
1771381828067,368,0,
1771381828071,367,0,
1771381828079,365,0,
1771381828083,362,0,
1771381828087,360,0,
1771381828091,359,0,
1771381828100,355,0,
1771381828104,354,0,
1771381828108,351,0,
1771381828116,349,0,
1771381828120,345,0,
1771381828124,342,0,
1771381828128,338,0,
1771381828136,335,0,
1771381828140,330,0,
1771381828145,326,0,
1771381828149,322,0,
1771381828157,318,0,
1771381828161,313,0,
1771381828165,308,0,
1771381828173,305,0,
1771381828177,303,0,
1771381828181,299,0,
1771381828186,296,0,
1771381828194,293,0,
1771381828198,291,0,
1771381828202,289,0,
1771381828206,285,0,
1771381828214,286,0,
1771381828218,286,0,
1771381828222,288,0,
1771381828226,291,0,
1771381828235,296,0,
1771381828239,302,0,
1771381828243,307,0,
1771381828251,313,0,
1771381828255,320,0,
1771381828259,325,0,
1771381828263,331,0,
1771381828272,340,0,
1771381828276,343,0,
1771381828280,345,0,
1771381828284,348,0,
1771381828292,349,0,
1771381828296,353,0,
1771381828300,354,0,
1771381828308,356,0,
1771381828312,355,0,
1771381828317,356,0,
1771381828321,358,0,
1771381828329,356,0,
1771381828333,357,0,
1771381828337,357,0,
1771381828341,356,0,
1771381828350,354,0,
1771381828353,355,0,
1771381828358,354,0,
1771381828362,356,0,
1771381828370,354,0,
1771381828374,352,0,
1771381828378,353,0,
1771381828386,354,0,
1771381828390,355,0,
1771381828394,355,0,
1771381828398,353,0,
1771381828407,354,0,
1771381828411,354,0,
1771381828415,354,0,
1771381828419,356,0,
1771381828427,354,0,
1771381828431,351,0,
1771381828435,353,0,
1771381828444,353,0,
1771381828448,353,0,
1771381828452,353,0,
1771381828456,352,0,
1771381828464,352,0,
1771381828468,353,0,
1771381828473,352,0,
1771381828476,350,0,
1771381828485,351,0,
1771381828489,352,0,
1771381828493,351,0,
1771381828497,349,0,
1771381828505,349,0,
1771381828509,348,0,
1771381828513,346,0,
1771381828521,348,0,
1771381828525,346,0,
1771381828530,347,0,
1771381828534,344,0,
1771381828542,337,0,
1771381828546,332,0,
1771381828550,324,0,
1771381828554,322,0,
1771381828562,324,0,
1771381828566,328,0,
1771381828571,332,0,
1771381828579,332,0,
1771381828583,335,0,
1771381828587,339,0,
1771381828591,342,0,
1771381828600,346,0,
1771381828604,347,0,
1771381828607,347,0,
1771381828611,348,0,
1771381828620,348,0,
1771381828624,345,0,
1771381828628,346,0,
1771381828636,347,0,
1771381828640,348,0,
1771381828644,348,0,
1771381828648,348,0,
1771381828657,348,0,
1771381828661,348,0,
1771381828665,348,0,
1771381828669,355,0,
1771381828677,356,0,
1771381828681,343,0,
1771381828685,303,0,
1771381828689,243,0,
1771381828697,153,0,
1771381828702,47,0,
1771381828706,1,0,
1771381828710,11,0,
1771381828714,72,0,
1771381828718,172,0,
1771381828722,305,0,
1771381828726,370,0,
1771381828734,369,0,
1771381828738,358,0,
1771381828743,359,0,
1771381828747,366,0,
1771381828755,372,0,
1771381828759,374,0,
1771381828763,374,0,
1771381828771,374,0,
1771381828775,373,0,
1771381828779,374,0,
1771381828783,373,0,
1771381828792,372,0,
1771381828796,371,0,
1771381828800,370,0,
1771381828804,369,0,
1771381828812,367,0,
1771381828816,364,0,
1771381828820,363,0,
1771381828824,360,0,
1771381828833,356,0,
1771381828837,355,0,
1771381828841,352,0,
1771381828849,350,0,
1771381828853,346,0,
1771381828857,342,0,
1771381828861,339,0,
1771381828869,336,0,
1771381828874,331,0,
1771381828878,327,0,
1771381828882,322,0,
1771381828890,318,0,
1771381828894,313,0,
1771381828898,310,0,
1771381828906,306,0,
1771381828910,303,0,
1771381828915,298,0,
1771381828919,295,0,
1771381828927,293,0,
1771381828931,291,0,
1771381828935,289,0,
1771381828939,288,0,
1771381828947,286,0,
1771381828951,286,0,
1771381828955,289,0,
1771381828960,292,0,
1771381828968,297,0,
1771381828972,303,0,
1771381828976,310,0,
1771381828985,315,0,
1771381828988,321,0,
1771381828992,327,0,
1771381828996,331,0,
1771381829005,339,0,
1771381829009,342,0,
1771381829013,346,0,
1771381829017,348,0,
1771381829025,349,0,
1771381829029,351,0,
1771381829034,353,0,
1771381829041,353,0,
1771381829046,353,0,
1771381829050,353,0,
1771381829054,353,0,
1771381829062,353,0,
1771381829066,352,0,
1771381829070,354,0,
1771381829074,354,0,
1771381829082,353,0,
1771381829087,355,0,
1771381829091,353,0,
1771381829095,353,0,
1771381829103,353,0,
1771381829107,354,0,
1771381829111,354,0,
1771381829119,353,0,
1771381829123,352,0,
1771381829128,351,0,
1771381829132,351,0,
1771381829140,353,0,
1771381829144,352,0,
1771381829148,351,0,
1771381829152,352,0,
1771381829160,352,0,
1771381829164,352,0,
1771381829168,352,0,
1771381829177,352,0,
1771381829181,351,0,
1771381829185,351,0,
1771381829189,351,0,
1771381829197,351,0,
1771381829201,351,0,
1771381829205,351,0,
1771381829209,350,0,
1771381829218,348,0,
1771381829222,349,0,
1771381829226,348,0,
1771381829234,348,0,
1771381829238,347,0,
1771381829242,346,0,
1771381829246,347,0,
1771381829254,346,0,
1771381829259,346,0,
1771381829263,343,0,
1771381829267,336,0,
1771381829275,326,0,
1771381829279,321,0,
1771381829283,323,0,
1771381829287,327,0,
1771381829295,329,0,
1771381829300,331,0,
1771381829304,333,0,
1771381829312,336,0,
1771381829316,339,0,
1771381829320,344,0,
1771381829324,346,0,
1771381829332,347,0,
1771381829336,345,0,
1771381829340,344,0,
1771381829345,345,0,
1771381829353,345,0,
1771381829357,345,0,
1771381829361,345,0,
1771381829369,346,0,
1771381829373,347,0,
1771381829377,346,0,
1771381829382,346,0,
1771381829390,346,0,
1771381829394,351,0,
1771381829398,354,0,
1771381829402,350,0,
1771381829410,322,0,
1771381829414,271,0,
1771381829418,194,0,
1771381829422,86,0,
1771381829427,13,0,
1771381829431,0,0,
1771381829435,28,0,
1771381829439,108,0,
1771381829447,246,0,
1771381829451,351,0,
1771381829455,373,0,
1771381829459,358,0,
1771381829467,353,0,
1771381829472,360,0,
1771381829476,367,0,
1771381829480,371,0,
1771381829488,374,0,
1771381829492,374,0,
1771381829496,374,0,
1771381829504,373,0,
1771381829508,371,0,
1771381829513,370,0,
1771381829517,370,0,
1771381829525,369,0,
1771381829529,368,0,
1771381829533,366,0,
1771381829537,364,0,
1771381829545,362,0,
1771381829549,359,0,
1771381829553,358,0,
1771381829558,356,0,
1771381829566,352,0,
1771381829570,350,0,
1771381829574,346,0,
1771381829582,343,0,
1771381829586,339,0,
1771381829590,335,0,
1771381829594,331,0,
1771381829603,327,0,
1771381829607,322,0,
1771381829611,319,0,
1771381829615,315,0,
1771381829623,311,0,
1771381829627,306,0,
1771381829631,302,0,
1771381829639,300,0,
1771381829644,297,0,
1771381829648,291,0,
1771381829652,291,0,
1771381829660,289,0,
1771381829664,288,0,
1771381829668,287,0,
1771381829672,287,0,
1771381829680,287,0,
1771381829685,292,0,
1771381829689,299,0,
1771381829697,302,0,
1771381829701,307,0,
1771381829705,314,0,
1771381829709,320,0,
1771381829717,327,0,
1771381829721,334,0,
1771381829726,339,0,
1771381829730,342,0,
1771381829738,346,0,
1771381829742,347,0,
1771381829746,351,0,
1771381829750,352,0,
1771381829758,353,0,
1771381829763,354,0,
1771381829766,355,0,
1771381829775,357,0,
1771381829779,355,0,
1771381829783,355,0,
1771381829787,356,0,
1771381829795,356,0,
1771381829799,355,0,
1771381829803,356,0,
1771381829807,355,0,
1771381829816,355,0,
1771381829820,355,0,
1771381829824,354,0,
1771381829832,355,0,
1771381829836,355,0,
1771381829840,354,0,
1771381829844,354,0,
1771381829853,354,0,
1771381829857,354,0,
1771381829861,353,0,
1771381829865,353,0,
1771381829873,353,0,
1771381829877,353,0,
1771381829881,352,0,
1771381829885,354,0,
1771381829893,353,0,
1771381829898,354,0,
1771381829902,354,0,
1771381829910,353,0,
1771381829914,352,0,
1771381829918,350,0,
1771381829922,351,0,
1771381829930,351,0,
1771381829934,350,0,
1771381829938,351,0,
1771381829943,350,0,
1771381829951,348,0,
1771381829955,349,0,
1771381829960,346,0,
1771381829967,345,0,
1771381829971,347,0,
1771381829975,348,0,
1771381829980,348,0,
1771381829988,341,0,
1771381829992,334,0,
1771381829996,327,0,
1771381830000,321,0,
1771381830008,322,0,
1771381830012,328,0,
1771381830016,331,0,
1771381830020,332,0,
1771381830029,333,0,
1771381830033,336,0,
1771381830037,340,0,
1771381830045,345,0,
1771381830049,346,0,
1771381830053,348,0,
1771381830057,348,0,
1771381830065,348,0,
1771381830070,347,0,
1771381830074,346,0,
1771381830078,347,0,
1771381830086,347,0,
1771381830090,347,0,
1771381830094,347,0,
1771381830102,348,0,
1771381830106,348,0,
1771381830111,346,0,
1771381830115,351,0,
1771381830123,356,0,
1771381830127,351,0,
1771381830131,322,0,
1771381830135,273,0,
1771381830143,197,0,
1771381830147,89,0,
1771381830151,14,0,
1771381830151,0,0,
1771381830156,25,0,
1771381830164,104,0,
1771381830168,242,0,
1771381830172,350,0,
1771381830180,375,0,
1771381830184,360,0,
1771381830188,356,0,
1771381830192,361,0,
1771381830201,368,0,
1771381830205,373,0,
1771381830209,375,0,
1771381830213,373,0,
1771381830221,376,0,
1771381830225,375,0,
1771381830229,374,0,
1771381830237,371,0,
1771381830242,371,0,
1771381830246,370,0,
1771381830250,369,0,
1771381830258,367,0,
1771381830262,364,0,
1771381830266,361,0,
1771381830270,360,0,
1771381830278,358,0,
1771381830282,355,0,
1771381830287,353,0,
1771381830295,350,0,
1771381830299,345,0,
1771381830303,345,0,
1771381830307,339,0,
1771381830315,336,0,
1771381830319,333,0,
1771381830323,328,0,
1771381830328,324,0,
1771381830336,319,0,
1771381830340,316,0,
1771381830344,311,0,
1771381830348,306,0,
1771381830356,303,0,
1771381830360,301,0,
1771381830364,297,0,
1771381830373,294,0,
1771381830377,291,0,
1771381830381,289,0,
1771381830385,287,0,
1771381830393,286,0,
1771381830397,287,0,
1771381830401,288,0,
1771381830405,292,0,
1771381830414,296,0,
1771381830418,303,0,
1771381830422,309,0,
1771381830430,313,0,
1771381830434,319,0,
1771381830438,327,0,
1771381830443,333,0,
1771381830450,337,0,
1771381830455,343,0,
1771381830459,347,0,
1771381830463,350,0,
1771381830471,352,0,
1771381830475,353,0,
1771381830479,355,0,
1771381830483,355,0,
1771381830491,355,0,
1771381830495,356,0,
1771381830500,355,0,
1771381830508,356,0,
1771381830512,355,0,
1771381830516,355,0,
1771381830520,357,0,
1771381830528,356,0,
1771381830533,355,0,
1771381830536,356,0,
1771381830541,357,0,
1771381830549,358,0,
1771381830553,357,0,
1771381830557,355,0,
1771381830565,353,0,
1771381830569,353,0,
1771381830573,354,0,
1771381830577,354,0,
1771381830586,354,0,
1771381830590,354,0,
1771381830594,353,0,
1771381830598,353,0,
1771381830606,355,0,
1771381830610,353,0,
1771381830614,352,0,
1771381830619,354,0,
1771381830627,353,0,
1771381830631,354,0,
1771381830635,353,0,
1771381830643,352,0,
1771381830647,353,0,
1771381830651,351,0,
1771381830655,352,0,
1771381830663,351,0,
1771381830668,350,0,
1771381830672,350,0,
1771381830676,348,0,
1771381830684,346,0,
1771381830688,346,0,
1771381830692,345,0,
1771381830700,345,0,
1771381830704,343,0,
1771381830708,337,0,
1771381830713,330,0,
1771381830721,321,0,
1771381830725,323,0,
1771381830729,328,0,
1771381830733,330,0,
1771381830741,333,0,
1771381830745,333,0,
1771381830749,336,0,
1771381830758,342,0,
1771381830762,345,0,
1771381830766,345,0,
1771381830770,348,0,
1771381830778,347,0,
1771381830782,345,0,
1771381830786,347,0,
1771381830790,346,0,
1771381830799,347,0,
1771381830803,346,0,
1771381830807,346,0,
1771381830811,347,0,
1771381830819,348,0,
1771381830823,348,0,
1771381830827,346,0,
1771381830835,350,0,
1771381830839,356,0,
1771381830844,353,0,
1771381830848,326,0,
1771381830856,278,0,
1771381830860,205,0,
1771381830864,94,0,
1771381830868,18,0,
1771381830872,0,0,
1771381830876,15,0,
1771381830880,91,0,
1771381830885,200,0,
1771381830889,329,0,
1771381830897,374,0,
1771381830901,363,0,
1771381830905,356,0,
1771381830909,359,0,
1771381830917,366,0,
1771381830921,372,0,
1771381830925,374,0,
1771381830930,373,0,
1771381830938,374,0,
1771381830942,374,0,
1771381830946,373,0,
1771381830950,372,0,
1771381830958,374,0,
1771381830962,369,0,
1771381830967,366,0,
1771381830975,367,0,
1771381830979,365,0,
1771381830983,362,0,
1771381830987,361,0,
1771381830995,359,0,
1771381830999,355,0,
1771381831003,353,0,
1771381831007,350,0,
1771381831016,345,0,
1771381831020,343,0,
1771381831024,338,0,
1771381831032,335,0,
1771381831036,330,0,
1771381831040,329,0,
1771381831044,321,0,
1771381831053,316,0,
1771381831057,315,0,
1771381831061,309,0,
1771381831065,305,0,
1771381831073,303,0,
1771381831077,299,0,
1771381831081,297,0,
1771381831089,295,0,
1771381831094,291,0,
1771381831098,287,0,
1771381831102,288,0,
1771381831110,285,0,
1771381831114,285,0,
1771381831118,285,0,
1771381831122,291,0,
1771381831131,293,0,
1771381831134,298,0,
1771381831138,306,0,
1771381831143,311,0,
1771381831151,318,0,
1771381831155,325,0,
1771381831159,331,0,
1771381831167,335,0,
1771381831171,341,0,
1771381831175,344,0,
1771381831179,346,0,
1771381831188,349,0,
1771381831192,351,0,
1771381831196,350,0,
1771381831200,352,0,
1771381831208,355,0,
1771381831212,353,0,
1771381831216,353,0,
1771381831224,356,0,
1771381831229,355,0,
1771381831233,355,0,
1771381831237,355,0,
1771381831245,354,0,
1771381831249,354,0,
1771381831253,355,0,
1771381831257,353,0,
1771381831266,353,0,
1771381831270,354,0,
1771381831274,356,0,
1771381831278,354,0,
1771381831286,353,0,
1771381831290,355,0,
1771381831294,353,0,
1771381831302,352,0,
1771381831306,353,0,
1771381831310,352,0,
1771381831315,352,0,
1771381831323,354,0,
1771381831327,353,0,
1771381831331,352,0,
1771381831335,354,0,
1771381831343,354,0,
1771381831347,352,0,
1771381831351,352,0,
1771381831360,353,0,
1771381831364,351,0,
1771381831368,350,0,
1771381831372,353,0,
1771381831380,350,0,
1771381831384,349,0,
1771381831389,350,0,
1771381831393,348,0,
1771381831401,346,0,
1771381831405,347,0,
1771381831409,346,0,
1771381831413,346,0,
1771381831421,344,0,
1771381831425,338,0,
1771381831429,330,0,
1771381831437,323,0,
1771381831442,322,0,
1771381831446,324,0,
1771381831450,328,0,
1771381831458,332,0,
1771381831462,331,0,
1771381831466,334,0,
1771381831470,339,0,
1771381831479,342,0,
1771381831482,345,0,
1771381831487,348,0,
1771381831495,347,0,
1771381831499,346,0,
1771381831503,347,0,
1771381831507,346,0,
1771381831515,345,0,
1771381831519,346,0,
1771381831523,349,0,
1771381831528,346,0,
1771381831536,346,0,
1771381831540,348,0,
1771381831544,346,0,
1771381831548,346,0,
1771381831556,354,0,
1771381831560,355,0,
1771381831564,341,0,
1771381831573,303,0,
1771381831577,243,0,
1771381831581,149,0,
1771381831585,41,0,
1771381831589,0,0,
1771381831593,3,0,
1771381831597,44,0,
1771381831601,137,0,
1771381831606,277,0,
1771381831609,363,0,
1771381831618,372,0,
1771381831622,357,0,
1771381831626,354,0,
1771381831635,362,0,
1771381831639,370,0,
1771381831642,372,0,
1771381831646,373,0,
1771381831655,374,0,
1771381831659,373,0,
1771381831663,373,0,
1771381831667,373,0,
1771381831675,372,0,
1771381831679,370,0,
1771381831683,370,0,
1771381831691,366,0,
1771381831695,363,0,
1771381831700,364,0,
1771381831704,362,0,
1771381831712,360,0,
1771381831716,358,0,
1771381831720,355,0,
1771381831724,351,0,
1771381831732,347,0,
1771381831736,345,0,
1771381831740,343,0,
1771381831745,338,0,
1771381831753,336,0,
1771381831757,331,0,
1771381831761,326,0,
1771381831769,323,0,
1771381831773,318,0,
1771381831777,312,0,
1771381831781,308,0,
1771381831790,305,0,
1771381831794,300,0,
1771381831798,298,0,
1771381831802,296,0,
1771381831810,293,0,
1771381831814,290,0,
1771381831818,288,0,
1771381831827,286,0,
1771381831831,284,0,
1771381831835,286,0,
1771381831839,289,0,
1771381831847,292,0,
1771381831851,299,0,
1771381831855,304,0,
1771381831859,308,0,
1771381831867,317,0,
1771381831872,322,0,
1771381831876,328,0,
1771381831880,335,0,
1771381831888,341,0,
1771381831892,344,0,
1771381831896,347,0,
1771381831904,349,0,
1771381831908,351,0,
1771381831913,352,0,
1771381831917,354,0,
1771381831925,355,0,
1771381831929,354,0,
1771381831933,357,0,
1771381831937,356,0,
1771381831945,355,0,
1771381831949,357,0,
1771381831953,357,0,
1771381831962,355,0,
1771381831966,355,0,
1771381831970,356,0,
1771381831974,356,0,
1771381831982,355,0,
1771381831986,357,0,
1771381831990,356,0,
1771381831995,355,0,
1771381832003,354,0,
1771381832007,354,0,
1771381832011,353,0,
1771381832019,355,0,
1771381832023,354,0,
1771381832027,353,0,
1771381832031,354,0,
1771381832040,354,0,
1771381832044,353,0,
1771381832048,353,0,
1771381832052,354,0,
1771381832060,353,0,
1771381832064,352,0,
1771381832068,354,0,
1771381832072,353,0,
1771381832080,351,0,
1771381832085,353,0,
1771381832089,352,0,
1771381832097,349,0,
1771381832101,351,0,
1771381832105,350,0,
1771381832109,347,0,
1771381832117,346,0,
1771381832121,347,0,
1771381832126,347,0,
1771381832130,345,0,
1771381832138,342,0,
1771381832142,336,0,
1771381832146,328,0,
1771381832154,323,0,
1771381832158,324,0,
1771381832162,326,0,
1771381832166,332,0,
1771381832175,334,0,
1771381832179,335,0,
1771381832183,337,0,
1771381832187,340,0,
1771381832195,343,0,
1771381832199,347,0,
1771381832203,348,0,
1771381832207,348,0,
1771381832216,347,0,
1771381832220,348,0,
1771381832224,349,0,
1771381832232,348,0,
1771381832236,348,0,
1771381832240,349,0,
1771381832244,347,0,
1771381832252,350,0,
1771381832257,350,0,
1771381832261,348,0,
1771381832265,352,0,
1771381832273,357,0,
1771381832277,355,0,
1771381832281,334,0,
1771381832289,288,0,
1771381832293,218,0,
1771381832298,114,0,
1771381832302,15,0,
1771381832306,0,0,
1771381832310,22,0,
1771381832314,99,0,
1771381832318,210,0,
1771381832322,334,0,
1771381832330,376,0,
1771381832334,365,0,
1771381832339,356,0,
1771381832343,359,0,
1771381832351,369,0,
1771381832355,374,0,
1771381832359,374,0,
1771381832367,375,0,
1771381832371,376,0,
1771381832375,376,0,
1771381832379,374,0,
1771381832388,374,0,
1771381832392,373,0,
1771381832396,370,0,
1771381832400,368,0,
1771381832408,368,0,
1771381832412,366,0,
1771381832416,366,0,
1771381832424,362,0,
1771381832429,356,0,
1771381832433,355,0,
1771381832437,354,0,
1771381832445,350,0,
1771381832449,348,0,
1771381832453,345,0,
1771381832457,339,0,
1771381832465,335,0,
1771381832470,332,0,
1771381832474,328,0,
1771381832482,323,0,
1771381832486,318,0,
1771381832490,316,0,
1771381832494,310,0,
1771381832502,308,0,
1771381832506,304,0,
1771381832511,299,0,
1771381832515,296,0,
1771381832523,294,0,
1771381832527,290,0,
1771381832531,288,0,
1771381832535,288,0,
1771381832543,287,0,
1771381832548,286,0,
1771381832552,288,0,
1771381832560,291,0,
1771381832564,294,0,
1771381832569,299,0,
1771381832572,306,0,
1771381832581,312,0,
1771381832584,320,0,
1771381832588,326,0,
1771381832592,331,0,
1771381832601,338,0,
1771381832605,342,0,
1771381832609,344,0,
1771381832617,346,0,
1771381832621,350,0,
1771381832625,351,0,
1771381832629,351,0,
1771381832637,353,0,
1771381832642,354,0,
1771381832646,353,0,
1771381832650,352,0,
1771381832658,353,0,
1771381832662,352,0,
1771381832666,354,0,
1771381832670,354,0,
1771381832678,352,0,
1771381832682,353,0,
1771381832687,354,0,
1771381832695,354,0,
1771381832699,354,0,
1771381832703,353,0,
1771381832707,353,0,
1771381832715,352,0,
1771381832719,352,0,
1771381832723,353,0,
1771381832728,351,0,
1771381832736,353,0,
1771381832740,352,0,
1771381832744,350,0,
1771381832752,352,0,
1771381832756,352,0,
1771381832760,351,0,
1771381832765,351,0,
1771381832773,351,0,
1771381832777,351,0,
1771381832781,351,0,
1771381832786,350,0,
1771381832793,350,0,
1771381832797,349,0,
1771381832801,349,0,
1771381832805,349,0,
1771381832814,347,0,
1771381832818,347,0,
1771381832822,345,0,
1771381832830,344,0,
1771381832834,346,0,
1771381832838,345,0,
1771381832842,340,0,
1771381832850,335,0,
1771381832855,330,0,
1771381832859,322,0,
1771381832863,320,0,
1771381832871,324,0,
1771381832875,329,0,
1771381832879,329,0,
1771381832887,331,0,
1771381832891,335,0,
1771381832895,338,0,
1771381832900,344,0,
1771381832908,345,0,
1771381832912,344,0,
1771381832916,346,0,
1771381832920,345,0,
1771381832928,344,0,
1771381832932,344,0,
1771381832936,346,0,
1771381832941,345,0,
1771381832949,344,0,
1771381832953,345,0,
1771381832957,345,0,
1771381832965,345,0,
1771381832969,346,0,
1771381832973,347,0,
1771381832977,351,0,
1771381832986,358,0,
1771381832990,347,0,
1771381832994,310,0,
1771381832998,253,0,
1771381833006,165,0,
1771381833010,60,0,
1771381833014,9,0,
1771381833018,13,0,
1771381833022,75,0,
1771381833027,170,0,
1771381833031,301,0,
1771381833035,376,0,
1771381833044,377,0,
1771381833047,358,0,
1771381833051,352,0,
1771381833055,358,0,
1771381833063,363,0,
1771381833068,369,0,
1771381833072,370,0,
1771381833080,366,0,
1771381833084,368,0,
1771381833088,370,0,
1771381833092,368,0,
1771381833100,368,0,
1771381833104,366,0,
1771381833108,364,0,
1771381833113,361,0,
1771381833121,361,0,
1771381833125,359,0,
1771381833129,356,0,
1771381833133,354,0,
1771381833141,353,0,
1771381833145,348,0,
1771381833150,347,0,
1771381833158,345,0,
1771381833162,339,0,
1771381833166,335,0,
1771381833170,332,0,
1771381833178,327,0,
1771381833182,322,0,
1771381833186,319,0,
1771381833190,313,0,
1771381833199,309,0,
1771381833203,305,0,
1771381833207,301,0,
1771381833215,296,0,
1771381833219,292,0,
1771381833223,291,0,
1771381833227,287,0,
1771381833235,287,0,
1771381833239,285,0,
1771381833244,279,0,
1771381833248,278,0,
1771381833256,278,0,
1771381833260,279,0,
1771381833264,282,0,
1771381833268,288,0,
1771381833276,293,0,
1771381833280,299,0,
1771381833285,306,0,
1771381833293,315,0,
1771381833297,321,0,
1771381833301,330,0,
1771381833305,334,0,
1771381833313,338,0,
1771381833317,343,0,
1771381833321,345,0,
1771381833326,346,0,
1771381833334,349,0,
1771381833338,351,0,
1771381833342,351,0,
1771381833350,351,0,
1771381833354,353,0,
1771381833359,352,0,
1771381833362,351,0,
1771381833371,353,0,
1771381833375,353,0,
1771381833379,353,0,
1771381833383,355,0,
1771381833391,353,0,
1771381833395,349,0,
1771381833399,352,0,
1771381833403,352,0,
1771381833412,351,0,
1771381833416,351,0,
1771381833420,352,0,
1771381833428,352,0,
1771381833432,352,0,
1771381833436,353,0,
1771381833440,352,0,
1771381833448,351,0,
1771381833452,352,0,
1771381833457,353,0,
1771381833461,352,0,
1771381833469,354,0,
1771381833473,353,0,
1771381833477,351,0,
1771381833485,352,0,
1771381833489,352,0,
1771381833493,350,0,
1771381833498,350,0,
1771381833506,351,0,
1771381833510,350,0,
1771381833514,350,0,
1771381833518,348,0,
1771381833526,348,0,
1771381833530,346,0,
1771381833534,348,0,
1771381833539,346,0,
1771381833547,342,0,
1771381833552,337,0,
1771381833555,329,0,
1771381833563,321,0,
1771381833567,325,0,
1771381833571,330,0,
1771381833575,332,0,
1771381833584,335,0,
1771381833588,336,0,
1771381833592,338,0,
1771381833596,341,0,
1771381833604,347,0,
1771381833608,348,0,
1771381833612,348,0,
1771381833621,348,0,
1771381833625,348,0,
1771381833629,348,0,
1771381833633,351,0,
1771381833641,348,0,
1771381833645,346,0,
1771381833649,346,0,
1771381833653,348,0,
1771381833661,348,0,
1771381833666,347,0,
1771381833670,347,0,
1771381833678,352,0,
1771381833682,359,0,
1771381833686,356,0,
1771381833690,331,0,
1771381833698,281,0,
1771381833702,210,0,
1771381833706,111,0,
1771381833710,25,0,
1771381833715,16,0,
1771381833719,74,0,
1771381833724,164,0,
1771381833731,294,0,
1771381833735,371,0,
1771381833739,374,0,
1771381833747,357,0,
1771381833751,355,0,
1771381833756,363,0,
1771381833760,369,0,
1771381833768,372,0,
1771381833772,374,0,
1771381833776,374,0,
1771381833780,372,0,
1771381833788,372,0,
1771381833792,371,0,
1771381833796,370,0,
1771381833801,368,0,
1771381833809,367,0,
1771381833813,366,0,
1771381833817,364,0,
1771381833825,362,0,
1771381833829,360,0,
1771381833833,358,0,
1771381833837,356,0,
1771381833846,353,0,
1771381833850,350,0,
1771381833854,349,0,
1771381833858,344,0,
1771381833866,339,0,
1771381833870,337,0,
1771381833874,332,0,
1771381833883,329,0,
1771381833887,323,0,
1771381833891,319,0,
1771381833895,317,0,
1771381833903,314,0,
1771381833907,310,0,
1771381833911,305,0,
1771381833915,302,0,
1771381833923,300,0,
1771381833928,297,0,
1771381833932,296,0,
1771381833936,296,0,
1771381833944,293,0,
1771381833948,289,0,
1771381833952,290,0,
1771381833960,292,0,
1771381833964,296,0,
1771381833969,299,0,
1771381833973,305,0,
1771381833981,310,0,
1771381833985,316,0,
1771381833989,322,0,
1771381833993,329,0,
1771381834002,334,0,
1771381834006,340,0,
1771381834009,344,0,
1771381834018,347,0,
1771381834022,350,0,
1771381834026,351,0,
1771381834030,354,0,
1771381834039,355,0,
1771381834042,355,0,
1771381834046,356,0,
1771381834050,357,0,
1771381834059,356,0,
1771381834063,356,0,
1771381834067,354,0,
1771381834075,355,0,
1771381834079,356,0,
1771381834083,356,0,
1771381834087,356,0,
1771381834095,355,0,
1771381834100,354,0,
1771381834104,355,0,
1771381834108,355,0,
1771381834116,356,0,
1771381834120,356,0,
1771381834124,355,0,
1771381834128,356,0,
1771381834136,356,0,
1771381834141,355,0,
1771381834145,354,0,
1771381834153,355,0,
1771381834157,355,0,
1771381834161,355,0,
1771381834165,354,0,
1771381834173,354,0,
1771381834177,354,0,
1771381834182,352,0,
1771381834186,352,0,
1771381834194,353,0,
1771381834198,353,0,
1771381834202,353,0,
1771381834210,352,0,
1771381834214,352,0,
1771381834218,351,0,
1771381834222,351,0,
1771381834231,349,0,
1771381834235,348,0,
1771381834239,348,0,
1771381834243,343,0,
1771381834251,336,0,
1771381834255,330,0,
1771381834259,324,0,
1771381834263,325,0,
1771381834272,331,0,
1771381834276,332,0,
1771381834280,335,0,
1771381834288,336,0,
1771381834292,337,0,
1771381834296,341,0,
1771381834300,344,0,
1771381834308,347,0,
1771381834313,349,0,
1771381834317,349,0,
1771381834321,350,0,
1771381834329,349,0,
1771381834333,348,0,
1771381834337,348,0,
1771381834345,348,0,
1771381834349,348,0,
1771381834354,348,0,
1771381834358,348,0,
1771381834366,350,0,
1771381834370,348,0,
1771381834374,349,0,
1771381834378,357,0,
1771381834386,356,0,
1771381834390,338,0,
1771381834395,295,0,
1771381834399,229,0,
1771381834407,124,0,
1771381834411,16,0,
1771381834415,0,0,
1771381834415,7,0,
1771381834419,53,0,
1771381834428,152,0,
1771381834431,290,0,
1771381834435,361,0,
1771381834440,364,0,
1771381834448,352,0,
1771381834452,358,0,
1771381834456,367,0,
1771381834460,371,0,
1771381834468,374,0,
1771381834473,377,0,
1771381834477,376,0,
1771381834485,375,0,
1771381834489,375,0,
1771381834493,374,0,
1771381834497,372,0,
1771381834505,372,0,
1771381834509,371,0,
1771381834513,368,0,
1771381834517,368,0,
1771381834526,367,0,
1771381834530,363,0,
1771381834534,360,0,
1771381834542,359,0,
1771381834546,355,0,
1771381834550,353,0,
1771381834554,350,0,
1771381834563,345,0,
1771381834566,342,0,
1771381834571,341,0,
1771381834575,336,0,
1771381834583,330,0,
1771381834587,328,0,
1771381834592,323,0,
1771381834595,317,0,
1771381834603,315,0,
1771381834607,313,0,
1771381834612,308,0,
1771381834620,306,0,
1771381834624,306,0,
1771381834628,305,0,
1771381834632,302,0,
1771381834640,302,0,
1771381834644,300,0,
1771381834648,300,0,
1771381834653,300,0,
1771381834661,301,0,
1771381834665,301,0,
1771381834669,305,0,
1771381834677,309,0,
1771381834681,315,0,
1771381834685,320,0,
1771381834689,324,0,
1771381834698,327,0,
1771381834702,333,0,
1771381834706,340,0,
1771381834710,341,0,
1771381834718,344,0,
1771381834722,348,0,
1771381834726,347,0,
1771381834730,349,0,
1771381834738,352,0,
1771381834743,353,0,
1771381834747,352,0,
1771381834755,353,0,
1771381834759,352,0,
1771381834763,354,0,
1771381834767,354,0,
1771381834775,357,0,
1771381834779,354,0,
1771381834784,353,0,
1771381834788,355,0,
1771381834796,353,0,
1771381834800,353,0,
1771381834804,355,0,
1771381834812,353,0,
1771381834816,352,0,
1771381834820,352,0,
1771381834825,353,0,
1771381834833,352,0,
1771381834837,353,0,
1771381834841,354,0,
1771381834845,351,0,
1771381834853,351,0,
1771381834857,354,0,
1771381834861,353,0,
1771381834870,352,0,
1771381834874,352,0,
1771381834878,351,0,
1771381834882,351,0,
1771381834890,351,0,
1771381834894,350,0,
1771381834898,350,0,
1771381834902,350,0,
1771381834911,350,0,
1771381834915,349,0,
1771381834919,349,0,
1771381834923,348,0,
1771381834931,345,0,
1771381834935,343,0,
1771381834939,345,0,
1771381834947,341,0,
1771381834951,335,0,
1771381834956,330,0,
1771381834960,320,0,
1771381834968,320,0,
1771381834972,326,0,
1771381834976,329,0,
1771381834980,331,0,
1771381834988,333,0,
1771381834992,335,0,
1771381834997,338,0,
1771381835005,344,0,
1771381835009,349,0,
1771381835013,347,0,
1771381835017,345,0,
1771381835026,348,0,
1771381835029,345,0,
1771381835033,344,0,
1771381835037,348,0,
1771381835046,348,0,
1771381835050,347,0,
1771381835054,347,0,
1771381835058,348,0,
1771381835066,347,0,
1771381835070,347,0,
1771381835074,348,0,
1771381835083,354,0,
1771381835087,359,0,
1771381835091,349,0,
1771381835095,309,0,
1771381835103,250,0,
1771381835107,156,0,
1771381835111,38,0,
1771381835115,0,0,
1771381835115,0,0,
1771381835119,22,0,
1771381835128,108,0,
1771381835132,254,0,
1771381835136,354,0,
1771381835144,367,0,
1771381835148,355,0,
1771381835152,357,0,
1771381835156,366,0,
1771381835164,372,0,
1771381835169,377,0,
1771381835173,376,0,
1771381835177,375,0,
1771381835186,376,0,
1771381835189,376,0,
1771381835193,374,0,
1771381835201,375,0,
1771381835205,374,0,
1771381835209,372,0,
1771381835214,369,0,
1771381835222,368,0,
1771381835226,366,0,
1771381835230,363,0,
1771381835234,362,0,
1771381835242,360,0,
1771381835246,357,0,
1771381835250,356,0,
1771381835255,351,0,
1771381835263,345,0,
1771381835267,343,0,
1771381835271,341,0,
1771381835279,336,0,
1771381835283,332,0,
1771381835287,328,0,
1771381835291,322,0,
1771381835300,318,0,
1771381835304,315,0,
1771381835308,313,0,
1771381835312,309,0,
1771381835320,306,0,
1771381835324,305,0,
1771381835328,302,0,
1771381835336,303,0,
1771381835341,300,0,
1771381835345,296,0,
1771381835349,295,0,
1771381835357,296,0,
1771381835361,296,0,
1771381835365,297,0,
1771381835369,300,0,
1771381835378,305,0,
1771381835382,311,0,
1771381835386,318,0,
1771381835390,322,0,
1771381835398,326,0,
1771381835402,333,0,
1771381835406,337,0,
1771381835414,340,0,
1771381835418,345,0,
1771381835422,348,0,
1771381835427,347,0,
1771381835435,350,0,
1771381835439,353,0,
1771381835443,352,0,
1771381835447,353,0,
1771381835455,355,0,
1771381835459,354,0,
1771381835463,354,0,
1771381835472,355,0,
1771381835476,357,0,
1771381835480,355,0,
1771381835484,355,0,
1771381835492,356,0,
1771381835496,356,0,
1771381835500,357,0,
1771381835504,356,0,
1771381835513,355,0,
1771381835517,356,0,
1771381835521,355,0,
1771381835525,353,0,
1771381835533,354,0,
1771381835537,355,0,
1771381835541,354,0,
1771381835549,353,0,
1771381835554,355,0,
1771381835558,354,0,
1771381835562,353,0,
1771381835570,353,0,
1771381835574,354,0,
1771381835578,352,0,
1771381835583,354,0,
1771381835590,354,0,
1771381835594,353,0,
1771381835599,353,0,
1771381835607,354,0,
1771381835611,352,0,
1771381835615,352,0,
1771381835619,353,0,
1771381835627,351,0,
1771381835631,349,0,
1771381835635,349,0,
1771381835640,349,0,
1771381835648,347,0,
1771381835652,344,0,
1771381835656,342,0,
1771381835661,334,0,
1771381835668,327,0,
1771381835672,323,0,
1771381835676,325,0,
1771381835685,331,0,
1771381835689,334,0,
1771381835693,334,0,
1771381835697,335,0,
1771381835706,339,0,
1771381835709,345,0,
1771381835713,349,0,
1771381835717,350,0,
1771381835726,350,0,
1771381835730,349,0,
1771381835734,352,0,
1771381835742,351,0,
1771381835746,348,0,
1771381835750,350,0,
1771381835754,350,0,
1771381835762,349,0,
1771381835766,350,0,
1771381835771,351,0,
1771381835775,350,0,
1771381835783,350,0,
1771381835787,358,0,
1771381835791,363,0,
1771381835799,357,0,
1771381835803,326,0,
1771381835807,272,0,
1771381835812,185,0,
1771381835816,67,0,
1771381835820,0,0,
1771381835824,0,0,
1771381835828,6,0,
1771381835833,54,0,
1771381835836,164,0,
1771381835840,306,0,
1771381835844,373,0,
1771381835853,370,0,
1771381835857,358,0,
1771381835861,361,0,
1771381835869,369,0,
1771381835873,376,0,
1771381835877,379,0,
1771381835881,380,0,
1771381835889,380,0,
1771381835893,379,0,
1771381835898,379,0,
1771381835902,378,0,
1771381835910,376,0,
1771381835914,376,0,
1771381835918,372,0,
1771381835922,370,0,
1771381835930,368,0,
1771381835934,366,0,
1771381835939,365,0,
1771381835947,362,0,
1771381835951,359,0,
1771381835955,358,0,
1771381835959,354,0,
1771381835967,350,0,
1771381835971,347,0,
1771381835975,343,0,
1771381835979,340,0,
1771381835988,336,0,
1771381835992,329,0,
1771381835996,325,0,
1771381836004,320,0,
1771381836008,316,0,
1771381836013,313,0,
1771381836016,309,0,
1771381836025,307,0,
1771381836029,303,0,
1771381836033,300,0,
1771381836037,299,0,
1771381836045,295,0,
1771381836049,292,0,
1771381836053,293,0,
1771381836058,292,0,
1771381836066,293,0,
1771381836070,294,0,
1771381836074,295,0,
1771381836082,300,0,
1771381836086,306,0,
1771381836090,311,0,
1771381836094,316,0,
1771381836102,322,0,
1771381836106,329,0,
1771381836110,334,0,
1771381836115,339,0,
1771381836123,345,0,
1771381836127,347,0,
1771381836131,349,0,
1771381836140,352,0,
1771381836143,353,0,
1771381836147,354,0,
1771381836151,355,0,
1771381836160,355,0,
1771381836164,355,0,
1771381836168,355,0,
1771381836172,355,0,
1771381836181,356,0,
1771381836184,356,0,
1771381836188,357,0,
1771381836197,356,0,
1771381836201,355,0,
1771381836205,356,0,
1771381836209,356,0,
1771381836217,354,0,
1771381836221,355,0,
1771381836225,355,0,
1771381836229,355,0,
1771381836238,354,0,
1771381836242,352,0,
1771381836246,353,0,
1771381836250,354,0,
1771381836258,353,0,
1771381836262,353,0,
1771381836266,352,0,
1771381836274,353,0,
1771381836278,353,0,
1771381836283,351,0,
1771381836287,352,0,
1771381836295,351,0,
1771381836299,350,0,
1771381836303,351,0,
1771381836307,351,0,
1771381836315,351,0,
1771381836319,351,0,
1771381836323,349,0,
1771381836332,349,0,
1771381836336,347,0,
1771381836340,347,0,
1771381836344,347,0,
1771381836352,347,0,
1771381836356,348,0,
1771381836360,343,0,
1771381836364,336,0,
1771381836373,329,0,
1771381836377,319,0,
1771381836381,317,0,
1771381836385,325,0,
1771381836394,327,0,
1771381836397,331,0,
1771381836401,332,0,
1771381836410,333,0,
1771381836414,337,0,
1771381836418,342,0,
1771381836422,347,0,
1771381836430,348,0,
1771381836434,347,0,
1771381836438,347,0,
1771381836443,347,0,
1771381836450,346,0,
1771381836455,347,0,
1771381836459,348,0,
1771381836467,346,0,
1771381836471,347,0,
1771381836476,345,0,
1771381836479,346,0,
1771381836487,345,0,
1771381836492,347,0,
1771381836496,356,0,
1771381836500,359,0,
1771381836508,347,0,
1771381836512,306,0,
1771381836516,242,0,
1771381836520,145,0,
1771381836529,31,0,
1771381836529,0,0,
1771381836532,0,0,
1771381836536,39,0,
1771381836541,134,0,
1771381836549,276,0,
1771381836553,365,0,
1771381836557,373,0,
1771381836561,355,0,
1771381836569,354,0,
1771381836573,365,0,
1771381836578,371,0,
1771381836582,373,0,
1771381836590,375,0,
1771381836594,373,0,
1771381836599,372,0,
1771381836606,374,0,
1771381836610,373,0,
1771381836614,370,0,
1771381836618,370,0,
1771381836627,368,0,
1771381836631,365,0,
1771381836635,363,0,
1771381836639,363,0,
1771381836647,358,0,
1771381836651,355,0,
1771381836655,355,0,
1771381836663,350,0,
1771381836668,347,0,
1771381836672,347,0,
1771381836676,342,0,
1771381836684,336,0,
1771381836688,334,0,
1771381836692,330,0,
1771381836696,324,0,
1771381836704,320,0,
1771381836708,315,0,
1771381836713,311,0,
1771381836717,307,0,
1771381836725,305,0,
1771381836729,300,0,
1771381836733,296,0,
1771381836741,295,0,
1771381836745,291,0,
1771381836749,289,0,
1771381836754,288,0,
1771381836762,285,0,
1771381836766,284,0,
1771381836770,285,0,
1771381836774,285,0,
1771381836782,288,0,
1771381836786,294,0,
1771381836790,300,0,
1771381836799,306,0,
1771381836803,312,0,
1771381836807,319,0,
1771381836811,322,0,
1771381836819,329,0,
1771381836823,337,0,
1771381836827,340,0,
1771381836831,342,0,
1771381836840,346,0,
1771381836844,349,0,
1771381836848,350,0,
1771381836852,353,0,
1771381836860,354,0,
1771381836864,353,0,
1771381836868,355,0,
1771381836876,356,0,
1771381836881,353,0,
1771381836885,353,0,
1771381836889,357,0,
1771381836897,354,0,
1771381836901,352,0,
1771381836905,354,0,
1771381836909,352,0,
1771381836917,351,0,
1771381836921,353,0,
1771381836926,353,0,
1771381836934,352,0,
1771381836938,353,0,
1771381836942,354,0,
1771381836946,352,0,
1771381836954,354,0,
1771381836958,356,0,
1771381836962,352,0,
1771381836967,352,0,
1771381836975,354,0,
1771381836979,352,0,
1771381836983,351,0,
1771381836991,352,0,
1771381836995,351,0,
1771381836999,350,0,
1771381837003,351,0,
1771381837012,353,0,
1771381837016,352,0,
1771381837020,352,0,
1771381837024,350,0,
1771381837032,348,0,
1771381837036,349,0,
1771381837040,352,0,
1771381837044,347,0,
1771381837053,341,0,
1771381837057,336,0,
1771381837061,327,0,
1771381837069,319,0,
1771381837073,322,0,
1771381837077,326,0,
1771381837081,331,0,
1771381837089,335,0,
1771381837093,334,0,
1771381837098,335,0,
1771381837102,341,0,
1771381837110,346,0,
1771381837114,349,0,
1771381837118,350,0,
1771381837126,352,0,
1771381837130,348,0,
1771381837134,347,0,
1771381837139,349,0,
1771381837147,347,0,
1771381837151,348,0,
1771381837155,350,0,
1771381837159,349,0,
1771381837167,350,0,
1771381837172,350,0,
1771381837176,349,0,
1771381837180,351,0,
1771381837188,359,0,
1771381837192,360,0,
1771381837196,338,0,
1771381837204,291,0,
1771381837208,223,0,
1771381837212,115,0,
1771381837216,13,0,
1771381837220,0,0,
1771381837225,22,0,
1771381837229,102,0,
1771381837233,243,0,
1771381837241,351,0,
1771381837245,375,0,
1771381837249,360,0,
1771381837257,356,0,
1771381837261,362,0,
1771381837266,370,0,
1771381837270,375,0,
1771381837278,377,0,
1771381837282,377,0,
1771381837286,376,0,
1771381837290,374,0,
1771381837298,375,0,
1771381837302,375,0,
1771381837306,372,0,
1771381837311,370,0,
1771381837319,369,0,
1771381837323,367,0,
1771381837327,363,0,
1771381837335,361,0,
1771381837339,360,0,
1771381837343,357,0,
1771381837347,354,0,
1771381837356,353,0,
1771381837360,350,0,
1771381837364,348,0,
1771381837368,343,0,
1771381837376,337,0,
1771381837380,332,0,
1771381837384,328,0,
1771381837392,324,0,
1771381837397,320,0,
1771381837401,315,0,
1771381837405,310,0,
1771381837413,305,0,
1771381837417,303,0,
1771381837421,300,0,
1771381837425,298,0,
1771381837433,294,0,
1771381837438,292,0,
1771381837442,289,0,
1771381837446,287,0,
1771381837454,285,0,
1771381837458,284,0,
1771381837462,286,0,
1771381837470,288,0,
1771381837474,292,0,
1771381837478,297,0,
1771381837483,303,0,
1771381837491,312,0,
1771381837495,319,0,
1771381837499,326,0,
1771381837503,333,0,
1771381837511,339,0,
1771381837515,342,0,
1771381837520,347,0,
1771381837528,349,0,
1771381837532,351,0,
1771381837536,353,0,
1771381837540,353,0,
1771381837548,355,0,
1771381837552,355,0,
1771381837557,356,0,
1771381837560,356,0,
1771381837569,356,0,
1771381837573,355,0,
1771381837577,355,0,
1771381837581,355,0,
1771381837589,357,0,
1771381837593,355,0,
1771381837597,354,0,
1771381837605,355,0,
1771381837610,355,0,
1771381837614,355,0,
1771381837618,355,0,
1771381837626,354,0,
1771381837630,354,0,
1771381837634,353,0,
1771381837638,354,0,
1771381837646,353,0,
1771381837650,353,0,
1771381837655,353,0,
1771381837663,353,0,
1771381837667,351,0,
1771381837671,352,0,
1771381837675,351,0,
1771381837683,349,0,
1771381837687,348,0,
1771381837691,348,0,
1771381837696,348,0,
1771381837704,346,0,
1771381837708,343,0,
1771381837712,338,0,
1771381837716,332,0,
1771381837724,324,0,
1771381837728,319,0,
1771381837732,323,0,
1771381837741,329,0,
1771381837745,333,0,
1771381837749,335,0,
1771381837753,337,0,
1771381837761,340,0,
1771381837765,343,0,
1771381837769,346,0,
1771381837773,347,0,
1771381837782,349,0,
1771381837786,348,0,
1771381837790,347,0,
1771381837798,347,0,
1771381837802,348,0,
1771381837806,348,0,
1771381837810,348,0,
1771381837818,347,0,
1771381837822,349,0,
1771381837827,349,0,
1771381837831,347,0,
1771381837839,347,0,
1771381837843,353,0,
1771381837847,363,0,
1771381837855,359,0,
1771381837859,328,0,
1771381837863,274,0,
1771381837868,193,0,
1771381837872,87,0,
1771381837876,17,0,
1771381837880,6,0,
1771381837884,44,0,
1771381837888,134,0,
1771381837896,271,0,
1771381837900,368,0,
1771381837904,386,0,
1771381837908,365,0,
1771381837917,351,0,
1771381837921,356,0,
1771381837925,363,0,
1771381837933,368,0,
1771381837937,370,0,
1771381837941,369,0,
1771381837945,370,0,
1771381837954,368,0,
1771381837958,367,0,
1771381837962,365,0,
1771381837966,364,0,
1771381837974,364,0,
1771381837978,361,0,
1771381837982,360,0,
1771381837990,359,0,
1771381837995,354,0,
1771381837999,350,0,
1771381838003,350,0,
1771381838011,347,0,
1771381838015,347,0,
1771381838019,343,0,
1771381838023,338,0,
1771381838031,334,0,
1771381838035,329,0,
1771381838040,325,0,
1771381838044,320,0,
1771381838052,316,0,
1771381838056,312,0,
1771381838060,306,0,
1771381838068,300,0,
1771381838072,296,0,
1771381838076,293,0,
1771381838081,289,0,
1771381838089,286,0,
1771381838093,284,0,
1771381838097,282,0,
1771381838101,279,0,
1771381838109,277,0,
1771381838113,276,0,
1771381838117,276,0,
1771381838126,279,0,
1771381838130,282,0,
1771381838134,288,0,
1771381838138,296,0,
1771381838146,303,0,
1771381838150,310,0,
1771381838155,319,0,
1771381838158,326,0,
1771381838166,331,0,
1771381838171,339,0,
1771381838175,344,0,
1771381838179,348,0,
1771381838187,350,0,
1771381838191,351,0,
1771381838195,353,0,
1771381838204,353,0,
1771381838207,354,0,
1771381838212,354,0,
1771381838216,354,0,
1771381838224,354,0,
1771381838228,355,0,
1771381838232,354,0,
1771381838236,355,0,
1771381838244,354,0,
1771381838248,353,0,
1771381838253,354,0,
1771381838261,354,0,
1771381838265,355,0,
1771381838269,354,0,
1771381838273,353,0,
1771381838281,353,0,
1771381838285,354,0,
1771381838289,355,0,
1771381838294,355,0,
1771381838302,354,0,
1771381838306,355,0,
1771381838310,355,0,
1771381838318,354,0,
1771381838322,356,0,
1771381838326,354,0,
1771381838330,351,0,
1771381838339,352,0,
1771381838343,351,0,
1771381838347,350,0,
1771381838351,347,0,
1771381838359,343,0,
1771381838363,336,0,
1771381838367,329,0,
1771381838371,326,0,
1771381838379,330,0,
1771381838384,336,0,
1771381838388,341,0,
1771381838396,342,0,
1771381838400,343,0,
1771381838404,346,0,
1771381838408,349,0,
1771381838416,353,0,
1771381838420,355,0,
1771381838425,354,0,
1771381838429,356,0,
1771381838437,357,0,
1771381838441,354,0,
1771381838445,353,0,
1771381838453,355,0,
1771381838457,356,0,
1771381838461,354,0,
1771381838466,353,0,
1771381838474,355,0,
1771381838478,354,0,
1771381838482,353,0,
1771381838486,358,0,
1771381838494,364,0,
1771381838498,363,0,
1771381838502,339,0,
1771381838506,289,0,
1771381838515,218,0,
1771381838519,117,0,
1771381838523,31,0,
1771381838527,22,0,
1771381838531,77,0,
1771381838535,169,0,
1771381838543,298,0,
1771381838547,376,0,
1771381838551,380,0,
1771381838556,363,0,
1771381838564,359,0,
1771381838568,365,0,
1771381838572,373,0,
1771381838576,377,0,
1771381838584,375,0,
1771381838589,376,0,
1771381838593,376,0,
1771381838601,374,0,
1771381838605,374,0,
1771381838609,374,0,
1771381838613,372,0,
1771381838621,372,0,
1771381838625,370,0,
1771381838629,366,0,
1771381838634,363,0,
1771381838642,362,0,
1771381838646,359,0,
1771381838650,359,0,
1771381838658,356,0,
1771381838663,354,0,
1771381838666,347,0,
1771381838671,344,0,
1771381838678,341,0,
1771381838683,336,0,
1771381838687,334,0,
1771381838691,329,0,
1771381838699,323,0,
1771381838703,321,0,
1771381838708,316,0,
1771381838711,311,0,
1771381838719,307,0,
1771381838724,305,0,
1771381838728,302,0,
1771381838736,300,0,
1771381838740,299,0,
1771381838744,298,0,
1771381838748,293,0,
1771381838756,293,0,
1771381838760,293,0,
1771381838764,293,0,
1771381838769,294,0,
1771381838777,298,0,
1771381838781,302,0,
1771381838785,308,0,
1771381838793,315,0,
1771381838797,321,0,
1771381838801,327,0,
1771381838805,335,0,
1771381838814,340,0,
1771381838818,345,0,
1771381838822,350,0,
1771381838826,353,0,
1771381838834,353,0,
1771381838838,356,0,
1771381838842,358,0,
1771381838850,355,0,
1771381838855,356,0,
1771381838859,358,0,
1771381838863,357,0,
1771381838871,357,0,
1771381838875,357,0,
1771381838879,357,0,
1771381838883,357,0,
1771381838891,357,0,
1771381838896,355,0,
1771381838900,355,0,
1771381838904,356,0,
1771381838912,359,0,
1771381838916,356,0,
